SpectraSuite Data File
++++++++++++++++++++++++++++++++++++
Date: Thu Oct 10 11:09:32 CEST 2019
User: admin
Dark Spectrum Present: Yes
Reference Spectrum Present: Yes
Number of Sampled Component Spectra: 1
Spectrometers: USB2G49547
Integration Time (usec): 100000 (USB2G49547)
Spectra Averaged: 10 (USB2G49547)
Boxcar Smoothing: 2 (USB2G49547)
Correct for Electrical Dark: No (USB2G49547)
Strobe/Lamp Enabled: No (USB2G49547)
Correct for Detector Non-linearity: No (USB2G49547)
Correct for Stray Light: No (USB2G49547)
Number of Pixels in Processed Spectrum: 651
>>>>>Begin Processed Spectral Data<<<<<
350.00	-128.920
351.00	-28.836
352.00	18.519
353.00	23.034
354.00	16.668
355.00	-1.196
356.00	-32.975
357.00	62.686
358.00	67.927
359.00	116.455
360.00	82.769
361.00	63.876
362.00	72.638
363.00	45.884
364.00	99.490
365.00	155.348
366.00	253.646
367.00	90.931
368.00	250.230
369.00	192.041
370.00	118.334
371.00	90.449
372.00	262.760
373.00	138.099
374.00	93.847
375.00	89.029
376.00	96.702
377.00	74.128
378.00	83.134
379.00	131.528
380.00	279.693
381.00	29.902
382.00	718.310
383.00	16.491
384.00	23.659
385.00	28.866
386.00	2.751
387.00	13.559
388.00	-37.049
389.00	-34.927
390.00	-15.948
391.00	88.500
392.00	139.561
393.00	137.958
394.00	138.455
395.00	152.084
396.00	114.520
397.00	94.615
398.00	90.201
399.00	72.496
400.00	48.195
401.00	48.130
402.00	51.745
403.00	58.011
404.00	75.571
405.00	82.608
406.00	61.993
407.00	44.217
408.00	49.369
409.00	53.630
410.00	46.568
411.00	55.121
412.00	71.558
413.00	77.860
414.00	73.705
415.00	89.234
416.00	88.424
417.00	82.638
418.00	75.008
419.00	78.778
420.00	68.604
421.00	82.113
422.00	83.380
423.00	79.879
424.00	80.629
425.00	83.302
426.00	78.712
427.00	85.650
428.00	89.981
429.00	88.453
430.00	90.894
431.00	94.235
432.00	97.630
433.00	91.795
434.00	91.739
435.00	94.626
436.00	94.298
437.00	84.320
438.00	91.336
439.00	95.738
440.00	95.715
441.00	94.368
442.00	97.640
443.00	93.029
444.00	88.339
445.00	87.674
446.00	87.752
447.00	89.689
448.00	90.528
449.00	94.279
450.00	93.759
451.00	90.340
452.00	87.187
453.00	89.735
454.00	88.476
455.00	88.968
456.00	93.449
457.00	94.660
458.00	92.222
459.00	93.086
460.00	92.769
461.00	90.865
462.00	89.957
463.00	90.387
464.00	88.775
465.00	86.029
466.00	86.508
467.00	86.410
468.00	88.554
469.00	89.387
470.00	92.430
471.00	93.145
472.00	94.905
473.00	93.977
474.00	94.347
475.00	94.190
476.00	94.097
477.00	94.293
478.00	93.880
479.00	93.717
480.00	93.975
481.00	93.665
482.00	93.908
483.00	93.923
484.00	93.858
485.00	94.409
486.00	95.151
487.00	94.587
488.00	94.777
489.00	95.599
490.00	94.781
491.00	94.290
492.00	94.020
493.00	94.321
494.00	93.507
495.00	93.859
496.00	94.197
497.00	94.878
498.00	94.436
499.00	94.183
500.00	94.263
501.00	94.475
502.00	94.676
503.00	95.320
504.00	96.141
505.00	96.266
506.00	95.878
507.00	95.054
508.00	94.401
509.00	94.338
510.00	94.110
511.00	94.439
512.00	94.573
513.00	94.932
514.00	94.896
515.00	94.750
516.00	94.315
517.00	94.373
518.00	94.213
519.00	94.295
520.00	94.312
521.00	94.690
522.00	94.721
523.00	94.949
524.00	94.872
525.00	94.817
526.00	94.605
527.00	94.864
528.00	94.529
529.00	94.593
530.00	94.567
531.00	94.593
532.00	94.400
533.00	94.418
534.00	94.169
535.00	94.451
536.00	94.342
537.00	94.285
538.00	94.411
539.00	94.349
540.00	94.365
541.00	94.360
542.00	94.454
543.00	94.213
544.00	94.120
545.00	93.839
546.00	93.732
547.00	93.716
548.00	94.032
549.00	94.157
550.00	94.120
551.00	94.271
552.00	94.323
553.00	94.244
554.00	94.224
555.00	94.349
556.00	94.594
557.00	94.676
558.00	94.647
559.00	94.612
560.00	94.647
561.00	94.448
562.00	94.397
563.00	94.502
564.00	94.562
565.00	94.475
566.00	94.542
567.00	94.470
568.00	94.382
569.00	94.494
570.00	94.605
571.00	94.497
572.00	94.674
573.00	94.688
574.00	94.828
575.00	94.683
576.00	94.732
577.00	94.608
578.00	94.540
579.00	94.399
580.00	94.430
581.00	94.653
582.00	94.788
583.00	94.886
584.00	94.767
585.00	94.830
586.00	94.633
587.00	94.579
588.00	94.439
589.00	94.565
590.00	94.523
591.00	94.529
592.00	94.459
593.00	94.626
594.00	94.568
595.00	94.589
596.00	94.685
597.00	94.741
598.00	94.710
599.00	94.829
600.00	94.981
601.00	95.011
602.00	95.027
603.00	95.113
604.00	95.166
605.00	95.157
606.00	95.080
607.00	95.166
608.00	95.145
609.00	95.108
610.00	95.170
611.00	95.160
612.00	95.082
613.00	95.027
614.00	95.014
615.00	95.057
616.00	95.146
617.00	95.328
618.00	95.529
619.00	95.695
620.00	95.671
621.00	95.757
622.00	95.607
623.00	95.568
624.00	95.459
625.00	95.329
626.00	95.349
627.00	95.259
628.00	95.218
629.00	95.145
630.00	95.272
631.00	95.192
632.00	95.312
633.00	95.156
634.00	95.129
635.00	95.121
636.00	95.054
637.00	94.972
638.00	94.899
639.00	94.911
640.00	94.695
641.00	94.513
642.00	94.418
643.00	94.534
644.00	94.430
645.00	94.391
646.00	94.424
647.00	94.505
648.00	94.286
649.00	94.172
650.00	94.105
651.00	94.105
652.00	93.938
653.00	93.928
654.00	93.897
655.00	93.789
656.00	93.621
657.00	93.411
658.00	93.347
659.00	93.201
660.00	93.070
661.00	92.863
662.00	92.745
663.00	92.608
664.00	92.429
665.00	92.339
666.00	92.242
667.00	92.059
668.00	91.766
669.00	91.554
670.00	91.384
671.00	91.134
672.00	90.985
673.00	90.864
674.00	90.760
675.00	90.460
676.00	90.278
677.00	89.968
678.00	89.594
679.00	89.179
680.00	88.955
681.00	88.708
682.00	88.400
683.00	88.083
684.00	87.837
685.00	87.285
686.00	86.829
687.00	86.561
688.00	86.146
689.00	85.821
690.00	85.501
691.00	85.165
692.00	84.782
693.00	84.450
694.00	84.027
695.00	83.685
696.00	83.243
697.00	82.951
698.00	82.654
699.00	82.298
700.00	82.035
701.00	81.746
702.00	81.393
703.00	81.135
704.00	80.917
705.00	80.558
706.00	80.464
707.00	80.320
708.00	80.262
709.00	80.143
710.00	80.220
711.00	80.071
712.00	79.893
713.00	79.720
714.00	79.793
715.00	79.737
716.00	79.889
717.00	80.175
718.00	80.296
719.00	80.185
720.00	80.315
721.00	80.376
722.00	80.367
723.00	80.499
724.00	80.878
725.00	81.098
726.00	81.244
727.00	81.413
728.00	81.541
729.00	81.495
730.00	81.676
731.00	81.863
732.00	82.170
733.00	82.508
734.00	82.745
735.00	82.899
736.00	83.154
737.00	83.445
738.00	83.700
739.00	84.089
740.00	84.340
741.00	84.596
742.00	84.710
743.00	85.038
744.00	85.352
745.00	85.649
746.00	85.736
747.00	85.924
748.00	85.968
749.00	86.091
750.00	86.223
751.00	86.566
752.00	86.790
753.00	86.969
754.00	87.179
755.00	87.625
756.00	87.719
757.00	87.973
758.00	88.149
759.00	88.233
760.00	88.283
761.00	88.513
762.00	88.521
763.00	88.648
764.00	88.804
765.00	89.050
766.00	89.317
767.00	89.600
768.00	89.878
769.00	90.079
770.00	90.150
771.00	90.241
772.00	90.308
773.00	90.385
774.00	90.504
775.00	90.746
776.00	90.843
777.00	90.957
778.00	90.977
779.00	91.293
780.00	91.242
781.00	91.505
782.00	91.592
783.00	91.929
784.00	91.892
785.00	92.001
786.00	91.983
787.00	92.211
788.00	92.357
789.00	92.448
790.00	92.637
791.00	92.835
792.00	92.882
793.00	92.979
794.00	93.161
795.00	93.324
796.00	93.476
797.00	93.646
798.00	93.556
799.00	93.578
800.00	93.540
801.00	93.583
802.00	93.774
803.00	94.096
804.00	94.282
805.00	94.356
806.00	94.481
807.00	94.526
808.00	94.453
809.00	94.404
810.00	94.572
811.00	94.626
812.00	94.676
813.00	94.775
814.00	94.975
815.00	95.094
816.00	95.280
817.00	95.392
818.00	95.518
819.00	95.567
820.00	95.836
821.00	95.847
822.00	95.770
823.00	96.145
824.00	96.469
825.00	96.284
826.00	96.599
827.00	96.917
828.00	96.698
829.00	96.661
830.00	96.884
831.00	96.730
832.00	96.657
833.00	96.690
834.00	96.703
835.00	96.849
836.00	96.841
837.00	97.015
838.00	97.451
839.00	97.557
840.00	97.380
841.00	97.481
842.00	97.513
843.00	97.446
844.00	97.352
845.00	97.359
846.00	97.483
847.00	97.241
848.00	97.123
849.00	97.221
850.00	97.235
851.00	97.302
852.00	97.419
853.00	97.661
854.00	98.031
855.00	98.297
856.00	98.290
857.00	98.558
858.00	98.405
859.00	98.156
860.00	98.349
861.00	98.369
862.00	98.231
863.00	98.318
864.00	98.660
865.00	98.507
866.00	98.534
867.00	98.754
868.00	98.922
869.00	98.861
870.00	98.808
871.00	98.915
872.00	98.854
873.00	99.040
874.00	99.168
875.00	99.517
876.00	99.583
877.00	99.876
878.00	99.525
879.00	99.383
880.00	99.426
881.00	99.473
882.00	99.625
883.00	99.979
884.00	99.906
885.00	99.971
886.00	100.015
887.00	99.692
888.00	99.603
889.00	99.785
890.00	99.555
891.00	99.763
892.00	99.987
893.00	99.909
894.00	100.259
895.00	100.459
896.00	100.597
897.00	100.417
898.00	100.478
899.00	100.154
900.00	100.119
901.00	99.902
902.00	100.150
903.00	100.054
904.00	100.072
905.00	100.395
906.00	100.172
907.00	99.948
908.00	100.188
909.00	100.303
910.00	100.203
911.00	100.266
912.00	100.575
913.00	100.747
914.00	100.987
915.00	101.021
916.00	100.994
917.00	101.118
918.00	100.820
919.00	100.573
920.00	100.273
921.00	101.048
922.00	100.680
923.00	100.893
924.00	100.877
925.00	100.812
926.00	100.078
927.00	100.590
928.00	100.436
929.00	100.313
930.00	100.842
931.00	100.801
932.00	100.705
933.00	101.550
934.00	102.261
935.00	102.020
936.00	102.647
937.00	102.190
938.00	101.399
939.00	101.123
940.00	101.512
941.00	101.929
942.00	102.404
943.00	103.106
944.00	102.987
945.00	102.963
946.00	102.660
947.00	102.431
948.00	101.666
949.00	101.875
950.00	101.882
951.00	102.022
952.00	102.112
953.00	102.039
954.00	101.876
955.00	101.304
956.00	100.568
957.00	101.072
958.00	101.793
959.00	102.213
960.00	103.309
961.00	104.171
962.00	104.124
963.00	103.397
964.00	103.193
965.00	102.160
966.00	101.854
967.00	101.790
968.00	102.679
969.00	102.851
970.00	103.624
971.00	104.275
972.00	104.729
973.00	104.482
974.00	103.066
975.00	104.087
976.00	101.934
977.00	100.338
978.00	100.501
979.00	102.186
980.00	100.151
981.00	101.604
982.00	102.860
983.00	103.062
984.00	104.115
985.00	104.746
986.00	105.429
987.00	105.238
988.00	105.955
989.00	104.533
990.00	102.897
991.00	101.545
992.00	100.973
993.00	100.076
994.00	99.536
995.00	101.953
996.00	100.549
997.00	101.371
998.00	99.863
999.00	102.900
1000.00	97.031
>>>>>End Processed Spectral Data<<<<<
