SpectraSuite Data File
++++++++++++++++++++++++++++++++++++
Date: Thu Oct 10 10:36:25 CEST 2019
User: admin
Dark Spectrum Present: Yes
Reference Spectrum Present: Yes
Number of Sampled Component Spectra: 1
Spectrometers: USB2G49547
Integration Time (usec): 100000 (USB2G49547)
Spectra Averaged: 10 (USB2G49547)
Boxcar Smoothing: 2 (USB2G49547)
Correct for Electrical Dark: No (USB2G49547)
Strobe/Lamp Enabled: No (USB2G49547)
Correct for Detector Non-linearity: No (USB2G49547)
Correct for Stray Light: No (USB2G49547)
Number of Pixels in Processed Spectrum: 651
>>>>>Begin Processed Spectral Data<<<<<
350.00	-24.216
351.00	232.902
352.00	192.239
353.00	55.085
354.00	43.685
355.00	98.033
356.00	596.660
357.00	103.364
358.00	-27991.974
359.00	199.510
360.00	126.313
361.00	80.298
362.00	71.389
363.00	52.146
364.00	41.076
365.00	49.045
366.00	78.582
367.00	50.602
368.00	95.951
369.00	1018.871
370.00	-2826.905
371.00	-33.948
372.00	-27.313
373.00	492.887
374.00	68.913
375.00	-9.550
376.00	19.808
377.00	-12.600
378.00	-77.435
379.00	-17.975
380.00	26.289
381.00	38.204
382.00	84.384
383.00	156.196
384.00	229.312
385.00	98.003
386.00	82.877
387.00	10.869
388.00	4.789
389.00	30.649
390.00	-2.311
391.00	52.425
392.00	62.953
393.00	48.625
394.00	15.137
395.00	28.588
396.00	7.149
397.00	0.510
398.00	7.802
399.00	43.369
400.00	54.614
401.00	38.366
402.00	37.079
403.00	29.392
404.00	25.965
405.00	4.330
406.00	34.434
407.00	49.818
408.00	60.500
409.00	65.004
410.00	65.905
411.00	67.915
412.00	70.803
413.00	61.872
414.00	58.247
415.00	75.508
416.00	80.827
417.00	84.473
418.00	82.165
419.00	86.813
420.00	84.904
421.00	75.259
422.00	81.677
423.00	89.012
424.00	94.105
425.00	94.782
426.00	102.763
427.00	99.679
428.00	102.152
429.00	104.899
430.00	96.474
431.00	96.626
432.00	97.857
433.00	92.130
434.00	91.280
435.00	97.995
436.00	98.548
437.00	98.314
438.00	99.716
439.00	97.099
440.00	95.965
441.00	92.896
442.00	91.648
443.00	90.957
444.00	92.873
445.00	92.811
446.00	94.108
447.00	92.105
448.00	91.356
449.00	89.860
450.00	87.051
451.00	87.246
452.00	89.599
453.00	93.946
454.00	92.155
455.00	94.704
456.00	95.440
457.00	95.902
458.00	93.239
459.00	94.074
460.00	92.246
461.00	89.750
462.00	90.290
463.00	89.427
464.00	88.613
465.00	91.349
466.00	93.653
467.00	92.106
468.00	92.739
469.00	93.236
470.00	92.050
471.00	90.910
472.00	92.555
473.00	92.632
474.00	94.035
475.00	94.737
476.00	95.268
477.00	94.277
478.00	95.085
479.00	94.484
480.00	94.197
481.00	95.044
482.00	94.335
483.00	92.933
484.00	92.826
485.00	92.845
486.00	92.019
487.00	93.725
488.00	94.647
489.00	96.287
490.00	96.155
491.00	95.943
492.00	95.093
493.00	94.023
494.00	92.253
495.00	91.971
496.00	92.423
497.00	92.061
498.00	92.483
499.00	92.339
500.00	92.502
501.00	91.732
502.00	91.522
503.00	91.628
504.00	91.634
505.00	91.645
506.00	92.016
507.00	91.526
508.00	91.597
509.00	92.008
510.00	91.695
511.00	91.404
512.00	91.849
513.00	91.403
514.00	91.538
515.00	91.686
516.00	91.741
517.00	91.645
518.00	91.762
519.00	91.211
520.00	91.166
521.00	91.206
522.00	91.087
523.00	91.273
524.00	91.524
525.00	91.495
526.00	91.521
527.00	92.033
528.00	91.695
529.00	91.348
530.00	91.262
531.00	90.974
532.00	90.316
533.00	90.510
534.00	90.793
535.00	90.852
536.00	91.148
537.00	91.317
538.00	91.111
539.00	90.872
540.00	91.142
541.00	90.929
542.00	90.791
543.00	90.962
544.00	91.154
545.00	91.020
546.00	91.266
547.00	91.564
548.00	91.521
549.00	91.429
550.00	91.384
551.00	91.183
552.00	91.050
553.00	91.102
554.00	91.054
555.00	90.806
556.00	90.665
557.00	90.437
558.00	90.125
559.00	90.180
560.00	90.240
561.00	90.308
562.00	90.648
563.00	90.810
564.00	91.024
565.00	90.944
566.00	90.923
567.00	90.981
568.00	90.810
569.00	90.643
570.00	90.489
571.00	90.481
572.00	90.391
573.00	90.575
574.00	90.673
575.00	90.958
576.00	90.901
577.00	90.812
578.00	90.690
579.00	90.507
580.00	90.446
581.00	90.478
582.00	90.315
583.00	90.428
584.00	90.361
585.00	90.468
586.00	90.577
587.00	90.844
588.00	90.754
589.00	90.888
590.00	90.684
591.00	90.784
592.00	90.816
593.00	90.770
594.00	90.686
595.00	90.773
596.00	90.548
597.00	90.447
598.00	90.462
599.00	90.361
600.00	90.235
601.00	90.123
602.00	90.009
603.00	89.992
604.00	89.977
605.00	89.901
606.00	89.912
607.00	89.802
608.00	89.645
609.00	89.542
610.00	89.474
611.00	89.433
612.00	89.336
613.00	89.318
614.00	89.168
615.00	89.246
616.00	89.142
617.00	89.224
618.00	89.261
619.00	89.267
620.00	89.080
621.00	89.080
622.00	89.045
623.00	88.925
624.00	88.984
625.00	88.948
626.00	88.802
627.00	88.581
628.00	88.450
629.00	88.225
630.00	88.098
631.00	88.039
632.00	88.006
633.00	88.028
634.00	88.000
635.00	88.112
636.00	88.077
637.00	88.024
638.00	87.950
639.00	87.931
640.00	87.753
641.00	87.708
642.00	87.711
643.00	87.702
644.00	87.617
645.00	87.515
646.00	87.345
647.00	87.058
648.00	86.817
649.00	86.644
650.00	86.440
651.00	86.289
652.00	86.160
653.00	85.972
654.00	85.854
655.00	85.709
656.00	85.482
657.00	85.203
658.00	84.852
659.00	84.575
660.00	84.316
661.00	84.162
662.00	84.109
663.00	83.942
664.00	83.826
665.00	83.635
666.00	83.407
667.00	83.219
668.00	83.174
669.00	83.018
670.00	82.967
671.00	82.923
672.00	82.667
673.00	82.503
674.00	82.422
675.00	82.253
676.00	82.103
677.00	82.041
678.00	81.962
679.00	81.643
680.00	81.486
681.00	81.273
682.00	81.194
683.00	81.007
684.00	80.939
685.00	80.677
686.00	80.563
687.00	80.346
688.00	80.174
689.00	79.757
690.00	79.510
691.00	79.073
692.00	78.673
693.00	78.240
694.00	77.788
695.00	77.359
696.00	77.044
697.00	76.481
698.00	75.915
699.00	75.516
700.00	75.111
701.00	74.401
702.00	73.999
703.00	73.594
704.00	72.968
705.00	72.464
706.00	72.125
707.00	71.559
708.00	70.807
709.00	70.407
710.00	69.827
711.00	69.224
712.00	68.762
713.00	68.506
714.00	67.955
715.00	67.562
716.00	67.114
717.00	66.543
718.00	66.012
719.00	65.848
720.00	65.588
721.00	65.265
722.00	65.038
723.00	64.877
724.00	64.499
725.00	64.043
726.00	63.549
727.00	63.235
728.00	62.729
729.00	62.271
730.00	61.979
731.00	61.663
732.00	61.378
733.00	61.305
734.00	61.100
735.00	60.917
736.00	60.841
737.00	60.804
738.00	60.692
739.00	60.782
740.00	60.647
741.00	60.589
742.00	60.298
743.00	60.117
744.00	60.031
745.00	59.884
746.00	59.638
747.00	59.661
748.00	59.605
749.00	59.493
750.00	59.436
751.00	59.525
752.00	59.471
753.00	59.288
754.00	58.986
755.00	58.856
756.00	59.013
757.00	58.904
758.00	59.107
759.00	59.274
760.00	59.464
761.00	59.266
762.00	59.199
763.00	59.023
764.00	58.951
765.00	58.778
766.00	58.874
767.00	58.899
768.00	58.869
769.00	59.213
770.00	59.374
771.00	59.482
772.00	59.524
773.00	59.877
774.00	59.609
775.00	59.520
776.00	59.753
777.00	60.184
778.00	60.148
779.00	60.389
780.00	60.825
781.00	60.734
782.00	60.644
783.00	60.698
784.00	60.960
785.00	60.869
786.00	60.970
787.00	61.182
788.00	61.448
789.00	61.617
790.00	61.743
791.00	62.002
792.00	62.207
793.00	62.207
794.00	62.079
795.00	62.270
796.00	62.249
797.00	62.291
798.00	62.565
799.00	62.811
800.00	63.006
801.00	63.044
802.00	63.251
803.00	63.290
804.00	63.375
805.00	63.616
806.00	63.942
807.00	64.062
808.00	64.427
809.00	64.673
810.00	64.746
811.00	64.920
812.00	65.036
813.00	64.874
814.00	65.086
815.00	65.224
816.00	65.409
817.00	65.767
818.00	65.977
819.00	65.991
820.00	66.047
821.00	66.093
822.00	66.033
823.00	66.151
824.00	66.459
825.00	66.399
826.00	66.623
827.00	66.485
828.00	66.785
829.00	67.023
830.00	67.432
831.00	67.771
832.00	68.629
833.00	68.723
834.00	68.557
835.00	68.986
836.00	68.979
837.00	68.834
838.00	69.243
839.00	69.875
840.00	69.524
841.00	69.657
842.00	69.715
843.00	69.963
844.00	69.719
845.00	70.085
846.00	70.238
847.00	70.371
848.00	69.868
849.00	70.304
850.00	70.320
851.00	70.580
852.00	70.711
853.00	71.375
854.00	71.412
855.00	71.670
856.00	71.697
857.00	72.057
858.00	72.171
859.00	72.260
860.00	72.611
861.00	72.990
862.00	73.154
863.00	73.279
864.00	73.532
865.00	73.512
866.00	73.741
867.00	73.829
868.00	73.905
869.00	74.111
870.00	74.318
871.00	74.298
872.00	73.779
873.00	73.569
874.00	73.399
875.00	73.336
876.00	73.464
877.00	74.230
878.00	74.650
879.00	74.991
880.00	74.909
881.00	74.755
882.00	74.675
883.00	74.714
884.00	74.621
885.00	75.108
886.00	75.480
887.00	75.691
888.00	75.483
889.00	75.962
890.00	76.369
891.00	76.614
892.00	76.408
893.00	77.301
894.00	76.872
895.00	77.054
896.00	76.866
897.00	77.143
898.00	76.970
899.00	77.003
900.00	76.610
901.00	76.022
902.00	76.338
903.00	75.971
904.00	76.294
905.00	76.589
906.00	78.354
907.00	78.353
908.00	78.451
909.00	78.655
910.00	78.108
911.00	77.121
912.00	77.266
913.00	77.958
914.00	78.355
915.00	79.654
916.00	80.176
917.00	80.163
918.00	79.640
919.00	79.030
920.00	78.482
921.00	78.555
922.00	78.261
923.00	77.537
924.00	77.717
925.00	77.527
926.00	76.882
927.00	77.041
928.00	78.935
929.00	79.146
930.00	79.908
931.00	80.494
932.00	81.571
933.00	81.273
934.00	81.015
935.00	80.388
936.00	79.729
937.00	79.280
938.00	79.580
939.00	78.911
940.00	78.969
941.00	80.365
942.00	80.484
943.00	78.811
944.00	80.387
945.00	81.746
946.00	81.228
947.00	82.537
948.00	83.833
949.00	84.195
950.00	83.681
951.00	82.557
952.00	80.450
953.00	80.628
954.00	79.811
955.00	78.362
956.00	78.858
957.00	79.175
958.00	79.735
959.00	78.340
960.00	78.809
961.00	79.388
962.00	78.584
963.00	78.068
964.00	81.354
965.00	81.609
966.00	81.446
967.00	81.296
968.00	80.243
969.00	78.481
970.00	81.226
971.00	84.329
972.00	87.749
973.00	92.725
974.00	94.497
975.00	94.515
976.00	87.717
977.00	86.308
978.00	86.398
979.00	86.202
980.00	82.743
981.00	87.253
982.00	83.506
983.00	78.865
984.00	78.514
985.00	79.502
986.00	81.069
987.00	87.412
988.00	88.613
989.00	88.587
990.00	86.968
991.00	83.748
992.00	79.018
993.00	79.366
994.00	80.454
995.00	82.123
996.00	82.734
997.00	88.900
998.00	81.707
999.00	114.332
1000.00	52.830
>>>>>End Processed Spectral Data<<<<<
