SpectraSuite Data File
++++++++++++++++++++++++++++++++++++
Date: Thu Oct 10 10:40:41 CEST 2019
User: admin
Dark Spectrum Present: Yes
Reference Spectrum Present: Yes
Number of Sampled Component Spectra: 1
Spectrometers: USB2G49547
Integration Time (usec): 100000 (USB2G49547)
Spectra Averaged: 10 (USB2G49547)
Boxcar Smoothing: 2 (USB2G49547)
Correct for Electrical Dark: No (USB2G49547)
Strobe/Lamp Enabled: No (USB2G49547)
Correct for Detector Non-linearity: No (USB2G49547)
Correct for Stray Light: No (USB2G49547)
Number of Pixels in Processed Spectrum: 651
>>>>>Begin Processed Spectral Data<<<<<
350.00	-27.596
351.00	92.412
352.00	123.506
353.00	33.260
354.00	71.338
355.00	121.342
356.00	962.949
357.00	169.787
358.00	-51977.852
359.00	173.684
360.00	116.483
361.00	72.589
362.00	94.080
363.00	82.016
364.00	74.787
365.00	116.484
366.00	202.984
367.00	135.491
368.00	147.213
369.00	2424.775
370.00	-2363.434
371.00	30.592
372.00	148.017
373.00	-1083.045
374.00	-29.404
375.00	-43.793
376.00	-9.304
377.00	-41.364
378.00	-101.408
379.00	-82.916
380.00	-102.442
381.00	-80.422
382.00	5.543
383.00	2.763
384.00	-97.410
385.00	25.513
386.00	-35.308
387.00	-9.820
388.00	17.332
389.00	97.862
390.00	103.795
391.00	130.799
392.00	119.442
393.00	88.309
394.00	50.678
395.00	62.045
396.00	46.292
397.00	35.667
398.00	24.242
399.00	11.273
400.00	-7.181
401.00	15.684
402.00	9.126
403.00	5.428
404.00	30.641
405.00	19.236
406.00	43.648
407.00	49.718
408.00	62.930
409.00	51.480
410.00	63.723
411.00	75.323
412.00	83.233
413.00	75.069
414.00	73.837
415.00	72.470
416.00	66.968
417.00	73.659
418.00	79.521
419.00	85.340
420.00	92.257
421.00	83.856
422.00	89.591
423.00	91.718
424.00	94.235
425.00	101.474
426.00	95.335
427.00	90.386
428.00	87.069
429.00	89.237
430.00	80.763
431.00	87.232
432.00	87.633
433.00	91.075
434.00	87.297
435.00	91.414
436.00	93.096
437.00	96.567
438.00	96.751
439.00	100.253
440.00	100.882
441.00	96.863
442.00	89.886
443.00	88.666
444.00	89.997
445.00	86.960
446.00	89.813
447.00	90.762
448.00	89.367
449.00	86.340
450.00	87.201
451.00	87.681
452.00	90.707
453.00	94.615
454.00	94.993
455.00	96.003
456.00	97.529
457.00	97.358
458.00	95.292
459.00	97.523
460.00	96.419
461.00	95.702
462.00	96.769
463.00	95.826
464.00	92.906
465.00	94.575
466.00	93.184
467.00	91.466
468.00	92.874
469.00	94.223
470.00	93.394
471.00	93.637
472.00	95.795
473.00	95.252
474.00	94.862
475.00	95.217
476.00	94.536
477.00	93.964
478.00	94.983
479.00	96.234
480.00	95.898
481.00	96.192
482.00	94.944
483.00	93.548
484.00	93.041
485.00	93.141
486.00	93.185
487.00	95.005
488.00	95.791
489.00	96.399
490.00	96.797
491.00	97.125
492.00	96.466
493.00	96.103
494.00	95.743
495.00	95.437
496.00	95.840
497.00	95.946
498.00	96.922
499.00	96.584
500.00	96.735
501.00	96.459
502.00	96.357
503.00	95.479
504.00	95.322
505.00	95.191
506.00	95.060
507.00	94.869
508.00	95.889
509.00	96.470
510.00	96.707
511.00	96.812
512.00	97.040
513.00	96.191
514.00	95.829
515.00	95.439
516.00	95.440
517.00	95.551
518.00	95.851
519.00	95.544
520.00	95.951
521.00	96.065
522.00	95.679
523.00	95.567
524.00	96.107
525.00	96.413
526.00	96.328
527.00	96.527
528.00	96.642
529.00	96.524
530.00	96.432
531.00	96.183
532.00	96.244
533.00	96.279
534.00	96.041
535.00	95.720
536.00	96.202
537.00	96.253
538.00	96.190
539.00	96.119
540.00	96.805
541.00	97.004
542.00	97.063
543.00	96.887
544.00	97.008
545.00	96.968
546.00	97.355
547.00	97.283
548.00	97.302
549.00	97.199
550.00	96.717
551.00	96.126
552.00	96.385
553.00	96.669
554.00	97.059
555.00	96.925
556.00	97.407
557.00	96.951
558.00	97.047
559.00	97.118
560.00	97.073
561.00	96.410
562.00	96.406
563.00	96.077
564.00	95.880
565.00	96.134
566.00	96.241
567.00	96.448
568.00	96.437
569.00	96.115
570.00	95.633
571.00	95.517
572.00	95.494
573.00	95.685
574.00	96.059
575.00	96.650
576.00	96.582
577.00	95.956
578.00	95.940
579.00	95.511
580.00	94.924
581.00	95.022
582.00	95.489
583.00	95.536
584.00	95.623
585.00	96.104
586.00	95.889
587.00	95.594
588.00	95.452
589.00	95.953
590.00	95.416
591.00	95.701
592.00	96.003
593.00	95.628
594.00	95.209
595.00	95.486
596.00	95.365
597.00	95.247
598.00	95.924
599.00	95.605
600.00	95.445
601.00	95.572
602.00	95.832
603.00	95.397
604.00	95.449
605.00	95.327
606.00	94.730
607.00	93.950
608.00	93.759
609.00	94.053
610.00	94.118
611.00	94.922
612.00	95.988
613.00	96.616
614.00	96.607
615.00	96.849
616.00	96.578
617.00	96.055
618.00	95.453
619.00	95.351
620.00	94.814
621.00	94.517
622.00	94.080
623.00	94.299
624.00	94.204
625.00	94.660
626.00	95.025
627.00	95.522
628.00	95.790
629.00	95.687
630.00	95.405
631.00	94.832
632.00	94.714
633.00	94.370
634.00	94.250
635.00	94.306
636.00	94.431
637.00	94.131
638.00	93.746
639.00	93.843
640.00	93.609
641.00	93.731
642.00	93.972
643.00	94.338
644.00	94.204
645.00	94.002
646.00	93.820
647.00	93.282
648.00	92.689
649.00	92.687
650.00	92.888
651.00	92.946
652.00	92.897
653.00	92.911
654.00	93.104
655.00	93.061
656.00	93.147
657.00	93.342
658.00	93.567
659.00	92.989
660.00	92.496
661.00	92.325
662.00	92.186
663.00	92.099
664.00	92.374
665.00	92.585
666.00	92.284
667.00	92.062
668.00	91.795
669.00	91.386
670.00	91.148
671.00	91.010
672.00	90.441
673.00	90.235
674.00	89.846
675.00	89.290
676.00	88.866
677.00	89.220
678.00	89.196
679.00	89.075
680.00	89.712
681.00	89.597
682.00	89.675
683.00	89.454
684.00	89.563
685.00	89.123
686.00	88.974
687.00	88.503
688.00	88.661
689.00	88.162
690.00	88.126
691.00	87.723
692.00	87.901
693.00	87.588
694.00	87.675
695.00	87.526
696.00	87.720
697.00	86.734
698.00	85.899
699.00	85.838
700.00	85.543
701.00	84.838
702.00	85.171
703.00	85.571
704.00	85.602
705.00	85.774
706.00	85.954
707.00	86.235
708.00	85.728
709.00	85.177
710.00	84.341
711.00	84.493
712.00	83.703
713.00	83.265
714.00	82.625
715.00	82.786
716.00	82.458
717.00	82.100
718.00	82.388
719.00	82.613
720.00	82.125
721.00	81.707
722.00	81.501
723.00	81.319
724.00	81.339
725.00	81.097
726.00	80.981
727.00	80.497
728.00	79.782
729.00	79.385
730.00	79.235
731.00	79.136
732.00	79.313
733.00	79.255
734.00	78.879
735.00	78.696
736.00	78.232
737.00	78.779
738.00	78.544
739.00	78.313
740.00	77.943
741.00	77.436
742.00	76.418
743.00	76.046
744.00	75.885
745.00	75.783
746.00	75.460
747.00	74.784
748.00	75.085
749.00	74.961
750.00	74.872
751.00	74.838
752.00	75.182
753.00	74.636
754.00	74.190
755.00	73.572
756.00	73.927
757.00	73.723
758.00	73.217
759.00	72.921
760.00	72.756
761.00	72.125
762.00	71.739
763.00	71.644
764.00	71.532
765.00	71.148
766.00	70.593
767.00	70.179
768.00	70.276
769.00	70.370
770.00	70.954
771.00	71.426
772.00	71.549
773.00	71.300
774.00	70.816
775.00	70.037
776.00	69.947
777.00	69.949
778.00	70.046
779.00	70.218
780.00	70.457
781.00	70.024
782.00	70.016
783.00	69.571
784.00	69.398
785.00	69.491
786.00	69.640
787.00	69.920
788.00	70.172
789.00	70.021
790.00	70.164
791.00	70.322
792.00	69.693
793.00	69.377
794.00	69.605
795.00	69.685
796.00	69.060
797.00	68.811
798.00	68.531
799.00	68.603
800.00	67.998
801.00	68.221
802.00	68.266
803.00	68.468
804.00	68.615
805.00	68.543
806.00	68.354
807.00	68.830
808.00	69.509
809.00	69.048
810.00	69.762
811.00	70.715
812.00	70.536
813.00	70.194
814.00	70.608
815.00	70.326
816.00	70.044
817.00	70.390
818.00	71.023
819.00	71.094
820.00	71.662
821.00	71.878
822.00	71.877
823.00	71.537
824.00	71.579
825.00	70.748
826.00	70.665
827.00	71.416
828.00	71.782
829.00	71.545
830.00	72.081
831.00	72.693
832.00	72.279
833.00	72.567
834.00	72.980
835.00	72.806
836.00	72.601
837.00	73.034
838.00	73.093
839.00	73.782
840.00	74.231
841.00	74.931
842.00	75.045
843.00	75.150
844.00	75.033
845.00	74.936
846.00	74.575
847.00	74.603
848.00	75.018
849.00	75.223
850.00	76.018
851.00	76.492
852.00	76.107
853.00	75.892
854.00	76.558
855.00	76.769
856.00	77.055
857.00	78.296
858.00	78.254
859.00	77.901
860.00	78.142
861.00	78.542
862.00	78.462
863.00	78.767
864.00	79.450
865.00	80.012
866.00	80.490
867.00	80.994
868.00	81.669
869.00	81.804
870.00	81.167
871.00	80.348
872.00	80.075
873.00	80.046
874.00	80.501
875.00	81.160
876.00	81.739
877.00	81.421
878.00	81.535
879.00	81.190
880.00	80.526
881.00	80.755
882.00	81.461
883.00	81.112
884.00	81.779
885.00	82.303
886.00	82.241
887.00	82.429
888.00	83.019
889.00	83.371
890.00	84.575
891.00	84.878
892.00	84.948
893.00	85.398
894.00	84.979
895.00	85.081
896.00	84.866
897.00	85.734
898.00	85.701
899.00	85.668
900.00	84.879
901.00	84.901
902.00	84.637
903.00	84.703
904.00	85.189
905.00	85.818
906.00	86.963
907.00	86.955
908.00	87.738
909.00	87.861
910.00	87.196
911.00	85.971
912.00	86.456
913.00	86.411
914.00	87.418
915.00	88.830
916.00	89.570
917.00	89.847
918.00	89.767
919.00	89.451
920.00	88.359
921.00	89.082
922.00	88.895
923.00	87.533
924.00	87.330
925.00	88.553
926.00	88.517
927.00	89.100
928.00	91.202
929.00	90.168
930.00	89.659
931.00	89.713
932.00	88.995
933.00	89.234
934.00	90.329
935.00	90.557
936.00	90.405
937.00	92.480
938.00	94.421
939.00	93.329
940.00	93.898
941.00	94.108
942.00	91.964
943.00	89.344
944.00	92.166
945.00	92.983
946.00	92.900
947.00	94.815
948.00	95.496
949.00	93.266
950.00	93.571
951.00	94.166
952.00	94.909
953.00	95.047
954.00	96.593
955.00	95.436
956.00	95.194
957.00	92.527
958.00	92.956
959.00	90.793
960.00	91.159
961.00	91.509
962.00	94.089
963.00	96.579
964.00	101.917
965.00	100.652
966.00	100.887
967.00	97.218
968.00	90.293
969.00	86.110
970.00	88.198
971.00	91.659
972.00	94.052
973.00	100.661
974.00	103.266
975.00	101.752
976.00	97.905
977.00	94.431
978.00	96.544
979.00	96.325
980.00	94.750
981.00	95.834
982.00	95.392
983.00	86.380
984.00	85.682
985.00	86.716
986.00	85.794
987.00	92.504
988.00	91.380
989.00	91.454
990.00	88.692
991.00	86.476
992.00	80.783
993.00	91.492
994.00	92.534
995.00	95.509
996.00	87.659
997.00	89.275
998.00	81.501
999.00	90.638
1000.00	78.016
>>>>>End Processed Spectral Data<<<<<
