SpectraSuite Data File
++++++++++++++++++++++++++++++++++++
Date: Thu Oct 10 10:50:13 CEST 2019
User: admin
Dark Spectrum Present: Yes
Reference Spectrum Present: Yes
Number of Sampled Component Spectra: 1
Spectrometers: USB2G49547
Integration Time (usec): 100000 (USB2G49547)
Spectra Averaged: 10 (USB2G49547)
Boxcar Smoothing: 2 (USB2G49547)
Correct for Electrical Dark: No (USB2G49547)
Strobe/Lamp Enabled: No (USB2G49547)
Correct for Detector Non-linearity: No (USB2G49547)
Correct for Stray Light: No (USB2G49547)
Number of Pixels in Processed Spectrum: 651
>>>>>Begin Processed Spectral Data<<<<<
350.00	-299.137
351.00	66.054
352.00	34.134
353.00	76.898
354.00	0.069
355.00	437.155
356.00	44.528
357.00	41.042
358.00	-92.023
359.00	12.420
360.00	-1.531
361.00	-228.156
362.00	-2.506
363.00	44.615
364.00	61.773
365.00	68.936
366.00	63.787
367.00	107.632
368.00	57.445
369.00	38.215
370.00	57.334
371.00	70.416
372.00	71.487
373.00	101.311
374.00	129.953
375.00	94.428
376.00	115.472
377.00	88.397
378.00	81.125
379.00	77.279
380.00	98.067
381.00	37.501
382.00	33.797
383.00	-46.001
384.00	-981.242
385.00	-62.248
386.00	28.486
387.00	-26.799
388.00	-53.298
389.00	-8.163
390.00	85.521
391.00	69.545
392.00	46.243
393.00	42.872
394.00	53.205
395.00	36.097
396.00	31.770
397.00	58.523
398.00	65.533
399.00	43.903
400.00	51.371
401.00	52.924
402.00	61.576
403.00	65.802
404.00	85.289
405.00	90.827
406.00	81.982
407.00	91.014
408.00	88.151
409.00	90.663
410.00	51.856
411.00	42.794
412.00	42.749
413.00	42.705
414.00	50.411
415.00	73.589
416.00	86.909
417.00	102.943
418.00	113.911
419.00	114.527
420.00	103.377
421.00	106.584
422.00	99.500
423.00	85.361
424.00	80.119
425.00	77.729
426.00	69.747
427.00	72.546
428.00	75.250
429.00	75.270
430.00	78.500
431.00	84.368
432.00	78.742
433.00	85.442
434.00	87.734
435.00	89.095
436.00	88.723
437.00	91.506
438.00	89.736
439.00	89.783
440.00	87.558
441.00	86.695
442.00	87.904
443.00	84.914
444.00	85.508
445.00	86.248
446.00	87.140
447.00	88.381
448.00	91.075
449.00	90.343
450.00	90.628
451.00	88.866
452.00	87.676
453.00	88.672
454.00	88.855
455.00	88.494
456.00	91.812
457.00	91.369
458.00	90.316
459.00	90.251
460.00	90.517
461.00	89.293
462.00	89.694
463.00	88.888
464.00	88.949
465.00	88.124
466.00	87.375
467.00	87.420
468.00	88.737
469.00	90.101
470.00	91.744
471.00	92.931
472.00	92.931
473.00	92.552
474.00	92.607
475.00	92.661
476.00	91.778
477.00	91.739
478.00	90.201
479.00	90.216
480.00	89.722
481.00	90.199
482.00	89.774
483.00	90.395
484.00	89.745
485.00	90.190
486.00	90.602
487.00	91.164
488.00	91.729
489.00	91.595
490.00	91.815
491.00	92.027
492.00	91.418
493.00	90.627
494.00	91.062
495.00	90.685
496.00	90.544
497.00	91.426
498.00	92.222
499.00	92.272
500.00	91.749
501.00	91.446
502.00	91.351
503.00	91.696
504.00	91.979
505.00	92.662
506.00	92.670
507.00	92.450
508.00	91.963
509.00	91.501
510.00	91.539
511.00	91.553
512.00	91.639
513.00	91.638
514.00	91.623
515.00	91.475
516.00	91.428
517.00	91.491
518.00	91.355
519.00	91.910
520.00	91.760
521.00	91.814
522.00	91.877
523.00	91.868
524.00	91.212
525.00	91.484
526.00	91.612
527.00	91.360
528.00	91.165
529.00	91.390
530.00	91.367
531.00	91.228
532.00	91.393
533.00	91.693
534.00	91.577
535.00	91.491
536.00	91.435
537.00	91.314
538.00	91.244
539.00	91.465
540.00	91.532
541.00	91.315
542.00	91.503
543.00	91.537
544.00	91.264
545.00	91.142
546.00	91.540
547.00	91.335
548.00	91.279
549.00	91.752
550.00	91.820
551.00	91.587
552.00	91.556
553.00	91.466
554.00	91.119
555.00	91.080
556.00	91.150
557.00	91.124
558.00	91.194
559.00	91.115
560.00	90.980
561.00	91.040
562.00	91.098
563.00	90.982
564.00	91.188
565.00	91.292
566.00	91.169
567.00	90.877
568.00	90.924
569.00	90.581
570.00	90.369
571.00	90.170
572.00	90.130
573.00	90.070
574.00	90.177
575.00	90.034
576.00	90.205
577.00	90.380
578.00	90.338
579.00	90.178
580.00	90.495
581.00	90.212
582.00	89.937
583.00	89.753
584.00	89.920
585.00	89.855
586.00	89.837
587.00	90.044
588.00	90.060
589.00	89.892
590.00	89.728
591.00	89.796
592.00	89.645
593.00	89.639
594.00	89.652
595.00	89.645
596.00	89.583
597.00	89.393
598.00	89.218
599.00	88.971
600.00	88.875
601.00	88.731
602.00	88.812
603.00	88.797
604.00	88.812
605.00	88.720
606.00	88.553
607.00	88.394
608.00	88.250
609.00	88.292
610.00	88.299
611.00	88.400
612.00	88.363
613.00	88.299
614.00	88.113
615.00	88.010
616.00	87.832
617.00	87.764
618.00	87.791
619.00	87.658
620.00	87.370
621.00	87.321
622.00	87.181
623.00	87.061
624.00	86.900
625.00	86.940
626.00	86.812
627.00	86.766
628.00	86.722
629.00	86.674
630.00	86.473
631.00	86.515
632.00	86.501
633.00	86.283
634.00	86.178
635.00	86.305
636.00	86.169
637.00	86.054
638.00	86.015
639.00	85.908
640.00	85.552
641.00	85.321
642.00	85.181
643.00	85.163
644.00	85.158
645.00	85.230
646.00	85.117
647.00	85.009
648.00	84.792
649.00	84.790
650.00	84.664
651.00	84.659
652.00	84.474
653.00	84.205
654.00	83.971
655.00	83.780
656.00	83.669
657.00	83.568
658.00	83.619
659.00	83.548
660.00	83.415
661.00	83.342
662.00	83.151
663.00	83.019
664.00	82.871
665.00	82.814
666.00	82.699
667.00	82.577
668.00	82.367
669.00	82.168
670.00	82.014
671.00	81.748
672.00	81.615
673.00	81.604
674.00	81.465
675.00	81.277
676.00	81.316
677.00	81.282
678.00	81.036
679.00	80.845
680.00	80.875
681.00	80.576
682.00	80.427
683.00	80.320
684.00	80.205
685.00	79.967
686.00	80.002
687.00	80.016
688.00	80.129
689.00	80.016
690.00	79.856
691.00	79.549
692.00	79.323
693.00	79.126
694.00	79.055
695.00	78.955
696.00	78.744
697.00	78.532
698.00	78.326
699.00	78.286
700.00	78.253
701.00	78.435
702.00	78.340
703.00	78.153
704.00	78.043
705.00	77.940
706.00	77.751
707.00	77.761
708.00	77.756
709.00	77.618
710.00	77.312
711.00	77.180
712.00	77.227
713.00	77.322
714.00	77.403
715.00	77.662
716.00	77.584
717.00	77.460
718.00	77.396
719.00	77.337
720.00	77.317
721.00	77.444
722.00	77.518
723.00	77.417
724.00	77.534
725.00	77.644
726.00	77.532
727.00	77.471
728.00	77.552
729.00	77.521
730.00	77.450
731.00	77.529
732.00	77.551
733.00	77.520
734.00	77.377
735.00	77.471
736.00	77.486
737.00	77.547
738.00	77.710
739.00	77.946
740.00	77.869
741.00	78.068
742.00	78.054
743.00	78.219
744.00	78.424
745.00	78.662
746.00	78.734
747.00	78.978
748.00	78.885
749.00	78.778
750.00	78.830
751.00	79.038
752.00	79.286
753.00	79.740
754.00	79.891
755.00	79.923
756.00	80.021
757.00	79.992
758.00	79.851
759.00	79.829
760.00	79.802
761.00	79.846
762.00	79.977
763.00	80.221
764.00	80.532
765.00	80.811
766.00	80.856
767.00	80.996
768.00	80.974
769.00	80.968
770.00	80.981
771.00	81.218
772.00	81.206
773.00	81.484
774.00	81.744
775.00	82.006
776.00	82.024
777.00	82.280
778.00	82.354
779.00	82.393
780.00	82.530
781.00	82.600
782.00	82.509
783.00	82.770
784.00	82.891
785.00	82.961
786.00	83.436
787.00	83.897
788.00	83.917
789.00	84.230
790.00	84.480
791.00	84.265
792.00	84.458
793.00	84.652
794.00	84.844
795.00	85.261
796.00	85.660
797.00	85.598
798.00	85.535
799.00	85.475
800.00	85.275
801.00	85.523
802.00	85.892
803.00	86.547
804.00	87.021
805.00	87.164
806.00	87.261
807.00	87.276
808.00	86.935
809.00	86.786
810.00	87.469
811.00	87.524
812.00	88.080
813.00	88.676
814.00	89.224
815.00	89.277
816.00	89.861
817.00	89.832
818.00	89.756
819.00	89.921
820.00	90.069
821.00	90.285
822.00	90.349
823.00	90.689
824.00	91.004
825.00	91.432
826.00	91.459
827.00	91.679
828.00	91.828
829.00	91.729
830.00	91.319
831.00	91.182
832.00	91.271
833.00	91.320
834.00	91.327
835.00	91.534
836.00	91.584
837.00	91.695
838.00	91.450
839.00	91.857
840.00	91.528
841.00	91.449
842.00	91.376
843.00	91.198
844.00	90.734
845.00	90.984
846.00	91.252
847.00	91.182
848.00	91.592
849.00	91.482
850.00	91.798
851.00	91.535
852.00	91.501
853.00	91.215
854.00	91.126
855.00	90.190
856.00	90.423
857.00	90.979
858.00	91.382
859.00	91.481
860.00	92.090
861.00	91.551
862.00	90.981
863.00	90.830
864.00	91.099
865.00	91.174
866.00	91.059
867.00	91.055
868.00	91.194
869.00	91.138
870.00	90.825
871.00	91.187
872.00	91.672
873.00	91.471
874.00	91.508
875.00	92.030
876.00	92.361
877.00	92.080
878.00	91.869
879.00	91.825
880.00	91.869
881.00	91.903
882.00	91.719
883.00	91.539
884.00	91.593
885.00	91.524
886.00	91.061
887.00	90.800
888.00	91.362
889.00	91.216
890.00	91.312
891.00	92.427
892.00	92.360
893.00	92.238
894.00	92.452
895.00	91.944
896.00	91.128
897.00	91.663
898.00	91.733
899.00	91.342
900.00	91.516
901.00	91.657
902.00	91.688
903.00	91.662
904.00	91.800
905.00	92.218
906.00	92.509
907.00	92.219
908.00	92.310
909.00	92.326
910.00	92.568
911.00	92.069
912.00	92.628
913.00	92.962
914.00	93.430
915.00	93.391
916.00	93.852
917.00	94.224
918.00	95.105
919.00	94.496
920.00	94.499
921.00	93.940
922.00	92.952
923.00	92.392
924.00	93.265
925.00	92.038
926.00	92.226
927.00	92.797
928.00	92.795
929.00	92.873
930.00	92.655
931.00	93.257
932.00	92.720
933.00	92.677
934.00	91.982
935.00	93.239
936.00	92.573
937.00	93.412
938.00	92.692
939.00	93.499
940.00	93.423
941.00	94.438
942.00	93.861
943.00	94.843
944.00	94.399
945.00	94.999
946.00	94.330
947.00	95.992
948.00	96.324
949.00	96.780
950.00	96.083
951.00	97.146
952.00	95.372
953.00	93.266
954.00	92.468
955.00	92.277
956.00	90.656
957.00	90.529
958.00	92.128
959.00	92.154
960.00	91.572
961.00	93.379
962.00	95.362
963.00	94.049
964.00	95.674
965.00	94.297
966.00	94.593
967.00	91.489
968.00	92.999
969.00	90.644
970.00	93.827
971.00	91.915
972.00	93.483
973.00	91.669
974.00	93.177
975.00	91.502
976.00	90.191
977.00	92.447
978.00	92.660
979.00	95.676
980.00	97.127
981.00	100.053
982.00	94.866
983.00	93.759
984.00	93.551
985.00	94.667
986.00	95.849
987.00	99.198
988.00	95.953
989.00	92.764
990.00	88.374
991.00	91.463
992.00	89.270
993.00	98.904
994.00	100.312
995.00	103.891
996.00	92.481
997.00	91.639
998.00	97.944
999.00	89.887
1000.00	153.437
>>>>>End Processed Spectral Data<<<<<
