SpectraSuite Data File
++++++++++++++++++++++++++++++++++++
Date: Thu Oct 10 11:15:47 CEST 2019
User: admin
Dark Spectrum Present: Yes
Reference Spectrum Present: Yes
Number of Sampled Component Spectra: 1
Spectrometers: USB2G49547
Integration Time (usec): 100000 (USB2G49547)
Spectra Averaged: 10 (USB2G49547)
Boxcar Smoothing: 2 (USB2G49547)
Correct for Electrical Dark: No (USB2G49547)
Strobe/Lamp Enabled: No (USB2G49547)
Correct for Detector Non-linearity: No (USB2G49547)
Correct for Stray Light: No (USB2G49547)
Number of Pixels in Processed Spectrum: 651
>>>>>Begin Processed Spectral Data<<<<<
350.00	745.799
351.00	138.813
352.00	143.937
353.00	102.098
354.00	104.229
355.00	106.996
356.00	102.178
357.00	115.852
358.00	136.342
359.00	112.137
360.00	135.741
361.00	136.752
362.00	107.483
363.00	118.918
364.00	127.848
365.00	125.778
366.00	136.689
367.00	112.827
368.00	82.767
369.00	84.869
370.00	65.517
371.00	47.745
372.00	82.635
373.00	125.161
374.00	102.334
375.00	115.627
376.00	126.001
377.00	102.092
378.00	82.524
379.00	99.624
380.00	100.199
381.00	112.794
382.00	117.384
383.00	159.067
384.00	125.787
385.00	162.655
386.00	135.600
387.00	172.003
388.00	112.254
389.00	125.643
390.00	127.504
391.00	130.338
392.00	101.747
393.00	98.315
394.00	115.698
395.00	132.483
396.00	83.240
397.00	51.214
398.00	83.914
399.00	55.971
400.00	74.500
401.00	168.721
402.00	273.459
403.00	103.823
404.00	81.308
405.00	22.981
406.00	15.222
407.00	43.752
408.00	112.763
409.00	109.153
410.00	118.743
411.00	157.104
412.00	224.292
413.00	282.343
414.00	713.512
415.00	29.666
416.00	165.751
417.00	224.947
418.00	278.067
419.00	164.761
420.00	89.276
421.00	83.485
422.00	93.426
423.00	111.238
424.00	120.754
425.00	132.077
426.00	103.026
427.00	112.190
428.00	87.852
429.00	103.883
430.00	100.949
431.00	101.761
432.00	88.827
433.00	100.234
434.00	91.392
435.00	90.511
436.00	92.032
437.00	88.890
438.00	90.984
439.00	89.953
440.00	96.452
441.00	92.985
442.00	101.636
443.00	97.216
444.00	98.539
445.00	92.395
446.00	93.085
447.00	86.275
448.00	87.670
449.00	92.202
450.00	95.543
451.00	94.890
452.00	99.434
453.00	102.223
454.00	103.234
455.00	102.354
456.00	106.324
457.00	104.124
458.00	106.191
459.00	100.015
460.00	99.657
461.00	99.134
462.00	98.110
463.00	94.683
464.00	96.875
465.00	96.551
466.00	95.204
467.00	98.659
468.00	99.934
469.00	98.014
470.00	98.707
471.00	101.079
472.00	99.724
473.00	98.831
474.00	99.780
475.00	99.470
476.00	97.438
477.00	97.534
478.00	98.079
479.00	97.885
480.00	97.266
481.00	97.781
482.00	97.100
483.00	97.476
484.00	96.966
485.00	98.600
486.00	98.908
487.00	98.904
488.00	98.485
489.00	98.752
490.00	97.746
491.00	97.477
492.00	98.101
493.00	97.475
494.00	97.991
495.00	98.575
496.00	98.800
497.00	98.160
498.00	98.291
499.00	97.875
500.00	97.253
501.00	96.494
502.00	96.404
503.00	96.816
504.00	96.420
505.00	96.364
506.00	96.931
507.00	97.086
508.00	96.674
509.00	97.309
510.00	97.835
511.00	97.586
512.00	97.571
513.00	97.707
514.00	97.430
515.00	97.184
516.00	97.643
517.00	97.595
518.00	97.647
519.00	97.510
520.00	97.674
521.00	97.101
522.00	97.276
523.00	97.032
524.00	96.873
525.00	96.952
526.00	97.181
527.00	97.164
528.00	97.423
529.00	97.746
530.00	97.178
531.00	97.087
532.00	96.937
533.00	96.700
534.00	96.894
535.00	96.989
536.00	97.155
537.00	97.267
538.00	97.324
539.00	97.233
540.00	97.512
541.00	97.431
542.00	97.564
543.00	97.637
544.00	97.479
545.00	97.370
546.00	97.291
547.00	96.972
548.00	97.027
549.00	96.868
550.00	96.811
551.00	96.973
552.00	97.181
553.00	97.118
554.00	97.180
555.00	97.088
556.00	97.099
557.00	96.974
558.00	96.788
559.00	96.724
560.00	96.783
561.00	96.671
562.00	96.449
563.00	96.733
564.00	96.573
565.00	96.747
566.00	96.549
567.00	96.676
568.00	96.587
569.00	96.583
570.00	96.439
571.00	96.656
572.00	96.564
573.00	96.470
574.00	96.717
575.00	96.599
576.00	96.484
577.00	96.493
578.00	96.417
579.00	96.354
580.00	96.293
581.00	96.103
582.00	96.146
583.00	96.090
584.00	96.195
585.00	96.302
586.00	96.469
587.00	96.422
588.00	96.479
589.00	96.182
590.00	96.025
591.00	95.979
592.00	95.836
593.00	95.871
594.00	96.024
595.00	96.041
596.00	96.138
597.00	96.272
598.00	96.097
599.00	95.975
600.00	95.909
601.00	95.792
602.00	95.733
603.00	95.787
604.00	95.903
605.00	95.926
606.00	95.822
607.00	95.817
608.00	95.820
609.00	95.792
610.00	95.768
611.00	95.926
612.00	95.912
613.00	95.934
614.00	95.874
615.00	95.827
616.00	95.519
617.00	95.447
618.00	95.239
619.00	95.105
620.00	95.031
621.00	95.093
622.00	95.178
623.00	95.298
624.00	95.343
625.00	95.374
626.00	95.441
627.00	95.281
628.00	95.099
629.00	94.991
630.00	94.995
631.00	94.906
632.00	94.856
633.00	94.891
634.00	94.873
635.00	94.813
636.00	94.643
637.00	94.621
638.00	94.626
639.00	94.655
640.00	94.585
641.00	94.587
642.00	94.439
643.00	94.348
644.00	94.122
645.00	94.064
646.00	94.156
647.00	94.142
648.00	94.088
649.00	94.074
650.00	93.972
651.00	93.888
652.00	93.900
653.00	93.741
654.00	93.662
655.00	93.568
656.00	93.319
657.00	93.137
658.00	93.051
659.00	92.976
660.00	92.770
661.00	92.737
662.00	92.632
663.00	92.589
664.00	92.542
665.00	92.656
666.00	92.596
667.00	92.503
668.00	92.391
669.00	92.187
670.00	91.992
671.00	91.802
672.00	91.641
673.00	91.584
674.00	91.523
675.00	91.379
676.00	91.263
677.00	91.138
678.00	90.873
679.00	90.761
680.00	90.586
681.00	90.447
682.00	90.299
683.00	90.175
684.00	89.962
685.00	89.830
686.00	89.577
687.00	89.454
688.00	89.211
689.00	89.057
690.00	88.803
691.00	88.724
692.00	88.492
693.00	88.293
694.00	88.018
695.00	87.884
696.00	87.644
697.00	87.536
698.00	87.513
699.00	87.389
700.00	87.184
701.00	87.050
702.00	86.812
703.00	86.490
704.00	86.154
705.00	85.907
706.00	85.698
707.00	85.429
708.00	85.156
709.00	84.960
710.00	84.733
711.00	84.345
712.00	84.116
713.00	83.925
714.00	83.765
715.00	83.387
716.00	83.175
717.00	82.878
718.00	82.616
719.00	82.096
720.00	82.000
721.00	81.719
722.00	81.413
723.00	81.076
724.00	81.046
725.00	80.687
726.00	80.309
727.00	80.123
728.00	79.743
729.00	79.257
730.00	79.053
731.00	78.736
732.00	78.260
733.00	77.967
734.00	77.668
735.00	77.267
736.00	76.960
737.00	76.834
738.00	76.624
739.00	76.413
740.00	75.991
741.00	75.800
742.00	75.364
743.00	75.082
744.00	74.961
745.00	74.836
746.00	74.609
747.00	74.564
748.00	74.288
749.00	73.714
750.00	73.565
751.00	73.168
752.00	72.860
753.00	72.449
754.00	72.596
755.00	72.281
756.00	71.979
757.00	71.769
758.00	71.611
759.00	71.234
760.00	71.140
761.00	70.995
762.00	70.654
763.00	70.679
764.00	70.476
765.00	70.400
766.00	70.433
767.00	70.384
768.00	70.285
769.00	70.269
770.00	70.046
771.00	69.987
772.00	69.791
773.00	69.611
774.00	69.381
775.00	68.932
776.00	68.469
777.00	68.382
778.00	68.255
779.00	68.244
780.00	68.467
781.00	68.621
782.00	68.417
783.00	68.427
784.00	68.368
785.00	68.330
786.00	68.563
787.00	68.654
788.00	68.596
789.00	68.630
790.00	68.314
791.00	68.174
792.00	68.237
793.00	68.117
794.00	67.883
795.00	68.219
796.00	68.212
797.00	68.324
798.00	68.350
799.00	68.551
800.00	68.633
801.00	68.504
802.00	68.602
803.00	68.989
804.00	69.177
805.00	69.181
806.00	69.385
807.00	69.298
808.00	69.162
809.00	68.874
810.00	68.799
811.00	69.110
812.00	69.223
813.00	69.438
814.00	69.928
815.00	70.118
816.00	70.146
817.00	70.326
818.00	70.088
819.00	69.983
820.00	70.192
821.00	70.145
822.00	70.442
823.00	71.040
824.00	70.912
825.00	70.869
826.00	71.289
827.00	71.365
828.00	71.408
829.00	71.998
830.00	72.318
831.00	72.032
832.00	72.097
833.00	72.061
834.00	72.028
835.00	72.150
836.00	72.239
837.00	72.250
838.00	72.376
839.00	72.652
840.00	73.087
841.00	73.669
842.00	73.788
843.00	74.130
844.00	74.092
845.00	73.792
846.00	73.794
847.00	74.111
848.00	74.227
849.00	74.617
850.00	74.853
851.00	74.925
852.00	74.846
853.00	75.064
854.00	74.918
855.00	75.146
856.00	75.303
857.00	75.695
858.00	75.834
859.00	76.164
860.00	76.409
861.00	76.319
862.00	76.567
863.00	76.621
864.00	76.829
865.00	76.893
866.00	77.336
867.00	77.342
868.00	77.419
869.00	77.576
870.00	77.623
871.00	77.711
872.00	77.666
873.00	77.572
874.00	77.342
875.00	77.465
876.00	77.782
877.00	77.926
878.00	78.130
879.00	78.583
880.00	78.509
881.00	78.358
882.00	78.644
883.00	78.801
884.00	78.990
885.00	79.487
886.00	79.882
887.00	80.181
888.00	80.345
889.00	80.413
890.00	80.390
891.00	80.686
892.00	80.392
893.00	80.674
894.00	80.846
895.00	81.046
896.00	81.203
897.00	81.669
898.00	81.328
899.00	81.110
900.00	81.051
901.00	80.830
902.00	80.625
903.00	80.950
904.00	81.013
905.00	81.229
906.00	81.566
907.00	81.614
908.00	81.698
909.00	82.521
910.00	82.672
911.00	82.754
912.00	82.933
913.00	83.145
914.00	82.962
915.00	83.212
916.00	82.971
917.00	83.546
918.00	84.083
919.00	83.863
920.00	83.784
921.00	83.895
922.00	83.473
923.00	83.245
924.00	83.464
925.00	83.427
926.00	83.742
927.00	84.135
928.00	84.120
929.00	84.154
930.00	84.558
931.00	84.614
932.00	84.968
933.00	85.044
934.00	85.146
935.00	84.750
936.00	84.045
937.00	83.665
938.00	84.013
939.00	84.065
940.00	84.122
941.00	84.637
942.00	84.761
943.00	84.637
944.00	84.584
945.00	85.584
946.00	86.060
947.00	85.624
948.00	85.600
949.00	86.130
950.00	85.296
951.00	84.568
952.00	84.958
953.00	85.180
954.00	84.690
955.00	85.050
956.00	86.254
957.00	86.135
958.00	85.828
959.00	86.303
960.00	85.756
961.00	85.322
962.00	85.613
963.00	86.247
964.00	87.296
965.00	87.608
966.00	87.423
967.00	88.544
968.00	88.404
969.00	87.358
970.00	87.054
971.00	87.727
972.00	87.466
973.00	87.545
974.00	87.547
975.00	87.866
976.00	88.260
977.00	87.242
978.00	85.809
979.00	84.241
980.00	83.012
981.00	81.303
982.00	82.390
983.00	82.598
984.00	84.975
985.00	87.201
986.00	88.004
987.00	87.196
988.00	88.356
989.00	87.478
990.00	88.638
991.00	88.202
992.00	86.107
993.00	83.819
994.00	82.815
995.00	79.504
996.00	80.816
997.00	83.097
998.00	84.806
999.00	88.623
1000.00	83.308
>>>>>End Processed Spectral Data<<<<<
