SpectraSuite Data File
++++++++++++++++++++++++++++++++++++
Date: Thu Oct 10 10:57:25 CEST 2019
User: admin
Dark Spectrum Present: Yes
Reference Spectrum Present: Yes
Number of Sampled Component Spectra: 1
Spectrometers: USB2G49547
Integration Time (usec): 100000 (USB2G49547)
Spectra Averaged: 10 (USB2G49547)
Boxcar Smoothing: 2 (USB2G49547)
Correct for Electrical Dark: No (USB2G49547)
Strobe/Lamp Enabled: No (USB2G49547)
Correct for Detector Non-linearity: No (USB2G49547)
Correct for Stray Light: No (USB2G49547)
Number of Pixels in Processed Spectrum: 651
>>>>>Begin Processed Spectral Data<<<<<
350.00	93.831
351.00	3.143
352.00	96.568
353.00	87.449
354.00	128.939
355.00	56.560
356.00	59.165
357.00	56.869
358.00	61.758
359.00	91.236
360.00	91.247
361.00	82.592
362.00	77.107
363.00	195.369
364.00	10.678
365.00	10.289
366.00	64.209
367.00	79.971
368.00	70.137
369.00	73.252
370.00	53.436
371.00	-6.422
372.00	-43.092
373.00	0.153
374.00	75.521
375.00	112.960
376.00	193.057
377.00	165.722
378.00	123.474
379.00	173.362
380.00	-796.263
381.00	-1727.373
382.00	37.021
383.00	276.193
384.00	127.920
385.00	60.071
386.00	68.050
387.00	75.496
388.00	93.511
389.00	83.365
390.00	103.594
391.00	87.829
392.00	105.642
393.00	94.104
394.00	95.830
395.00	49.699
396.00	108.254
397.00	79.491
398.00	78.320
399.00	109.520
400.00	135.155
401.00	136.291
402.00	152.644
403.00	119.094
404.00	64.765
405.00	59.678
406.00	74.644
407.00	68.232
408.00	67.511
409.00	85.503
410.00	90.660
411.00	69.007
412.00	71.580
413.00	97.548
414.00	103.783
415.00	99.215
416.00	123.685
417.00	131.975
418.00	129.971
419.00	132.042
420.00	136.937
421.00	126.891
422.00	109.392
423.00	98.416
424.00	88.996
425.00	87.386
426.00	85.884
427.00	91.635
428.00	101.132
429.00	100.336
430.00	99.014
431.00	91.442
432.00	99.057
433.00	92.758
434.00	99.347
435.00	98.409
436.00	104.394
437.00	98.804
438.00	95.568
439.00	96.471
440.00	103.120
441.00	105.610
442.00	105.813
443.00	110.963
444.00	107.596
445.00	103.009
446.00	100.332
447.00	103.898
448.00	100.452
449.00	103.525
450.00	100.758
451.00	97.568
452.00	93.081
453.00	96.441
454.00	94.357
455.00	97.199
456.00	97.409
457.00	99.060
458.00	96.331
459.00	98.952
460.00	97.828
461.00	98.861
462.00	98.274
463.00	99.577
464.00	96.711
465.00	95.534
466.00	97.272
467.00	96.814
468.00	96.769
469.00	97.025
470.00	98.929
471.00	98.165
472.00	99.385
473.00	98.603
474.00	99.405
475.00	98.473
476.00	98.679
477.00	98.682
478.00	99.282
479.00	98.290
480.00	97.961
481.00	97.791
482.00	98.125
483.00	98.522
484.00	98.720
485.00	98.611
486.00	99.096
487.00	98.597
488.00	98.494
489.00	98.779
490.00	99.610
491.00	99.580
492.00	100.915
493.00	100.654
494.00	100.983
495.00	101.401
496.00	101.045
497.00	100.242
498.00	100.824
499.00	100.228
500.00	99.371
501.00	99.850
502.00	99.918
503.00	99.508
504.00	99.318
505.00	99.594
506.00	99.886
507.00	100.003
508.00	100.031
509.00	100.292
510.00	100.419
511.00	99.434
512.00	99.174
513.00	99.183
514.00	99.169
515.00	99.113
516.00	99.089
517.00	99.084
518.00	98.841
519.00	99.242
520.00	99.389
521.00	100.036
522.00	100.219
523.00	100.172
524.00	100.007
525.00	100.089
526.00	99.702
527.00	99.584
528.00	100.049
529.00	99.709
530.00	99.191
531.00	99.543
532.00	99.408
533.00	99.122
534.00	99.299
535.00	99.517
536.00	99.347
537.00	99.420
538.00	99.474
539.00	99.610
540.00	99.444
541.00	99.229
542.00	99.191
543.00	99.236
544.00	98.858
545.00	98.922
546.00	98.963
547.00	98.951
548.00	98.897
549.00	99.059
550.00	98.745
551.00	98.985
552.00	99.055
553.00	99.217
554.00	99.069
555.00	99.517
556.00	99.188
557.00	98.959
558.00	98.746
559.00	98.959
560.00	98.677
561.00	98.609
562.00	98.888
563.00	98.916
564.00	98.982
565.00	99.160
566.00	99.263
567.00	99.217
568.00	99.150
569.00	98.889
570.00	98.832
571.00	98.896
572.00	98.875
573.00	98.752
574.00	98.863
575.00	99.063
576.00	99.017
577.00	99.008
578.00	99.011
579.00	99.029
580.00	98.813
581.00	98.767
582.00	98.653
583.00	98.870
584.00	98.856
585.00	98.846
586.00	98.835
587.00	98.838
588.00	98.788
589.00	98.772
590.00	98.753
591.00	98.760
592.00	98.697
593.00	98.605
594.00	98.494
595.00	98.407
596.00	98.403
597.00	98.360
598.00	98.371
599.00	98.395
600.00	98.376
601.00	98.094
602.00	97.870
603.00	97.656
604.00	97.569
605.00	97.644
606.00	97.936
607.00	98.187
608.00	98.260
609.00	98.456
610.00	98.247
611.00	97.844
612.00	97.686
613.00	97.564
614.00	97.263
615.00	97.254
616.00	97.453
617.00	97.402
618.00	97.336
619.00	97.244
620.00	97.092
621.00	96.871
622.00	96.664
623.00	96.443
624.00	96.213
625.00	96.029
626.00	95.816
627.00	95.584
628.00	95.503
629.00	95.359
630.00	95.211
631.00	95.015
632.00	94.996
633.00	94.778
634.00	94.538
635.00	94.373
636.00	94.402
637.00	93.976
638.00	93.733
639.00	93.606
640.00	93.242
641.00	92.737
642.00	92.639
643.00	92.399
644.00	92.074
645.00	91.760
646.00	91.585
647.00	91.182
648.00	90.876
649.00	90.490
650.00	90.143
651.00	89.879
652.00	89.688
653.00	89.402
654.00	89.269
655.00	89.095
656.00	88.748
657.00	88.386
658.00	87.994
659.00	87.568
660.00	87.339
661.00	86.918
662.00	86.574
663.00	86.274
664.00	86.002
665.00	85.678
666.00	85.537
667.00	85.333
668.00	85.186
669.00	85.017
670.00	84.842
671.00	84.567
672.00	84.392
673.00	84.273
674.00	84.075
675.00	84.047
676.00	83.932
677.00	83.762
678.00	83.529
679.00	83.422
680.00	83.081
681.00	83.039
682.00	82.894
683.00	82.830
684.00	82.767
685.00	82.743
686.00	82.485
687.00	82.601
688.00	82.543
689.00	82.354
690.00	82.328
691.00	82.407
692.00	82.334
693.00	82.323
694.00	82.441
695.00	82.523
696.00	82.696
697.00	82.601
698.00	82.646
699.00	82.709
700.00	82.825
701.00	82.776
702.00	83.006
703.00	82.977
704.00	83.105
705.00	83.090
706.00	83.155
707.00	83.190
708.00	83.362
709.00	83.295
710.00	83.233
711.00	83.196
712.00	83.265
713.00	83.455
714.00	83.631
715.00	83.830
716.00	83.906
717.00	83.814
718.00	83.753
719.00	83.726
720.00	83.823
721.00	83.995
722.00	84.060
723.00	84.056
724.00	84.125
725.00	83.864
726.00	83.916
727.00	84.013
728.00	84.038
729.00	84.147
730.00	84.340
731.00	84.365
732.00	84.537
733.00	84.549
734.00	84.637
735.00	84.920
736.00	84.893
737.00	84.748
738.00	84.757
739.00	84.627
740.00	84.537
741.00	84.762
742.00	84.924
743.00	85.319
744.00	85.410
745.00	85.451
746.00	85.369
747.00	85.501
748.00	85.192
749.00	85.349
750.00	85.397
751.00	85.225
752.00	85.000
753.00	84.982
754.00	84.908
755.00	84.768
756.00	84.826
757.00	84.753
758.00	84.689
759.00	84.516
760.00	84.449
761.00	84.241
762.00	84.315
763.00	84.324
764.00	84.314
765.00	84.161
766.00	84.353
767.00	84.031
768.00	84.042
769.00	83.979
770.00	84.119
771.00	84.003
772.00	84.318
773.00	84.417
774.00	84.485
775.00	84.474
776.00	84.658
777.00	84.736
778.00	84.574
779.00	84.734
780.00	84.493
781.00	84.197
782.00	83.935
783.00	83.900
784.00	83.698
785.00	84.037
786.00	83.890
787.00	83.779
788.00	83.723
789.00	83.601
790.00	82.989
791.00	83.281
792.00	83.263
793.00	83.173
794.00	83.442
795.00	83.563
796.00	83.265
797.00	83.116
798.00	83.084
799.00	82.514
800.00	82.811
801.00	83.082
802.00	83.218
803.00	83.359
804.00	83.661
805.00	83.583
806.00	83.410
807.00	83.329
808.00	83.078
809.00	82.740
810.00	82.661
811.00	82.239
812.00	82.262
813.00	82.434
814.00	82.658
815.00	82.305
816.00	82.633
817.00	82.453
818.00	82.294
819.00	82.114
820.00	82.280
821.00	81.926
822.00	81.955
823.00	81.944
824.00	82.040
825.00	82.248
826.00	82.805
827.00	82.928
828.00	82.967
829.00	82.673
830.00	82.326
831.00	81.960
832.00	81.768
833.00	81.677
834.00	81.873
835.00	81.977
836.00	81.992
837.00	82.148
838.00	82.143
839.00	81.825
840.00	81.798
841.00	81.696
842.00	81.484
843.00	81.266
844.00	81.278
845.00	80.808
846.00	80.575
847.00	80.490
848.00	80.188
849.00	80.650
850.00	81.004
851.00	81.241
852.00	81.366
853.00	81.638
854.00	81.208
855.00	81.288
856.00	81.035
857.00	80.632
858.00	80.549
859.00	80.488
860.00	80.024
861.00	79.790
862.00	79.954
863.00	79.872
864.00	79.824
865.00	79.930
866.00	80.497
867.00	80.458
868.00	80.670
869.00	80.784
870.00	80.575
871.00	80.451
872.00	80.266
873.00	79.783
874.00	79.506
875.00	79.746
876.00	79.125
877.00	79.029
878.00	78.900
879.00	78.827
880.00	78.559
881.00	78.938
882.00	79.298
883.00	80.055
884.00	80.327
885.00	80.398
886.00	80.000
887.00	79.810
888.00	79.004
889.00	78.313
890.00	77.932
891.00	77.574
892.00	77.492
893.00	77.821
894.00	77.803
895.00	77.526
896.00	78.044
897.00	77.613
898.00	77.685
899.00	78.590
900.00	79.343
901.00	79.748
902.00	79.648
903.00	79.422
904.00	78.349
905.00	77.948
906.00	77.862
907.00	78.031
908.00	78.272
909.00	78.149
910.00	78.160
911.00	77.517
912.00	78.156
913.00	77.422
914.00	77.309
915.00	77.568
916.00	77.414
917.00	76.813
918.00	77.514
919.00	77.751
920.00	77.015
921.00	77.584
922.00	77.213
923.00	76.356
924.00	76.846
925.00	76.827
926.00	76.527
927.00	76.578
928.00	77.015
929.00	77.355
930.00	77.689
931.00	77.167
932.00	77.674
933.00	77.198
934.00	76.854
935.00	76.116
936.00	76.110
937.00	76.028
938.00	76.062
939.00	75.296
940.00	76.394
941.00	77.306
942.00	77.827
943.00	76.754
944.00	77.886
945.00	77.727
946.00	76.633
947.00	75.592
948.00	76.347
949.00	74.406
950.00	74.291
951.00	73.592
952.00	73.365
953.00	72.455
954.00	73.619
955.00	73.255
956.00	74.024
957.00	74.824
958.00	76.964
959.00	76.681
960.00	76.543
961.00	80.083
962.00	80.060
963.00	80.895
964.00	80.050
965.00	78.760
966.00	75.843
967.00	73.261
968.00	73.776
969.00	76.014
970.00	78.760
971.00	79.160
972.00	81.849
973.00	78.551
974.00	76.029
975.00	74.357
976.00	74.100
977.00	72.717
978.00	74.097
979.00	76.765
980.00	76.770
981.00	77.813
982.00	79.438
983.00	78.807
984.00	77.889
985.00	78.622
986.00	75.370
987.00	73.986
988.00	76.190
989.00	77.347
990.00	79.458
991.00	78.576
992.00	81.196
993.00	78.000
994.00	70.094
995.00	67.712
996.00	66.820
997.00	68.367
998.00	67.658
999.00	88.370
1000.00	74.996
>>>>>End Processed Spectral Data<<<<<
