SpectraSuite Data File
++++++++++++++++++++++++++++++++++++
Date: Thu Oct 10 10:38:14 CEST 2019
User: admin
Dark Spectrum Present: Yes
Reference Spectrum Present: Yes
Number of Sampled Component Spectra: 1
Spectrometers: USB2G49547
Integration Time (usec): 100000 (USB2G49547)
Spectra Averaged: 10 (USB2G49547)
Boxcar Smoothing: 2 (USB2G49547)
Correct for Electrical Dark: No (USB2G49547)
Strobe/Lamp Enabled: No (USB2G49547)
Correct for Detector Non-linearity: No (USB2G49547)
Correct for Stray Light: No (USB2G49547)
Number of Pixels in Processed Spectrum: 651
>>>>>Begin Processed Spectral Data<<<<<
350.00	-118.209
351.00	188.015
352.00	351.160
353.00	102.667
354.00	116.510
355.00	135.365
356.00	415.918
357.00	137.276
358.00	-37825.260
359.00	180.985
360.00	149.774
361.00	101.563
362.00	111.176
363.00	90.554
364.00	81.668
365.00	95.343
366.00	149.118
367.00	82.889
368.00	60.279
369.00	184.691
370.00	-1180.159
371.00	-21.544
372.00	-38.820
373.00	718.459
374.00	134.513
375.00	65.099
376.00	44.231
377.00	1.228
378.00	16.466
379.00	-24.041
380.00	-62.219
381.00	-68.630
382.00	0.918
383.00	-19.730
384.00	-36.491
385.00	-11.164
386.00	-44.638
387.00	-56.643
388.00	-22.934
389.00	44.159
390.00	58.534
391.00	89.406
392.00	126.749
393.00	80.218
394.00	30.488
395.00	57.170
396.00	44.780
397.00	35.536
398.00	55.020
399.00	132.566
400.00	108.991
401.00	95.182
402.00	47.833
403.00	35.673
404.00	45.647
405.00	12.222
406.00	37.595
407.00	49.125
408.00	59.267
409.00	62.933
410.00	73.658
411.00	60.381
412.00	68.720
413.00	71.387
414.00	61.758
415.00	65.346
416.00	78.517
417.00	81.084
418.00	78.875
419.00	80.968
420.00	79.253
421.00	76.169
422.00	77.509
423.00	85.534
424.00	93.491
425.00	104.765
426.00	106.002
427.00	105.028
428.00	103.686
429.00	105.993
430.00	94.723
431.00	88.878
432.00	89.476
433.00	84.290
434.00	76.291
435.00	81.723
436.00	89.067
437.00	92.556
438.00	96.309
439.00	100.358
440.00	99.198
441.00	95.193
442.00	91.529
443.00	87.367
444.00	89.341
445.00	90.137
446.00	93.933
447.00	93.235
448.00	92.224
449.00	90.406
450.00	88.063
451.00	86.423
452.00	89.162
453.00	94.146
454.00	92.078
455.00	93.303
456.00	94.337
457.00	93.079
458.00	91.768
459.00	92.656
460.00	92.960
461.00	92.514
462.00	93.743
463.00	93.797
464.00	93.465
465.00	93.632
466.00	92.679
467.00	91.791
468.00	91.256
469.00	90.878
470.00	89.635
471.00	89.803
472.00	91.026
473.00	90.374
474.00	91.654
475.00	93.472
476.00	93.030
477.00	91.763
478.00	92.745
479.00	92.517
480.00	91.661
481.00	92.317
482.00	91.296
483.00	90.224
484.00	89.846
485.00	90.022
486.00	90.679
487.00	92.274
488.00	93.482
489.00	94.499
490.00	94.932
491.00	93.927
492.00	93.469
493.00	92.819
494.00	91.999
495.00	91.788
496.00	92.049
497.00	91.194
498.00	91.400
499.00	91.155
500.00	90.662
501.00	90.302
502.00	90.964
503.00	91.053
504.00	90.720
505.00	91.113
506.00	91.204
507.00	91.171
508.00	91.062
509.00	91.750
510.00	91.695
511.00	92.079
512.00	91.992
513.00	91.706
514.00	91.348
515.00	91.512
516.00	91.458
517.00	91.442
518.00	91.436
519.00	91.645
520.00	91.219
521.00	91.122
522.00	91.074
523.00	91.197
524.00	91.482
525.00	91.558
526.00	91.388
527.00	91.736
528.00	91.369
529.00	91.048
530.00	91.049
531.00	90.887
532.00	90.508
533.00	90.826
534.00	90.887
535.00	91.075
536.00	91.505
537.00	91.634
538.00	91.440
539.00	91.104
540.00	90.967
541.00	90.833
542.00	90.540
543.00	90.695
544.00	90.886
545.00	91.039
546.00	91.047
547.00	91.186
548.00	91.196
549.00	91.155
550.00	91.066
551.00	90.748
552.00	90.562
553.00	90.636
554.00	90.328
555.00	90.070
556.00	90.367
557.00	90.312
558.00	90.071
559.00	90.310
560.00	90.333
561.00	90.226
562.00	90.531
563.00	90.414
564.00	90.641
565.00	90.753
566.00	90.706
567.00	90.484
568.00	90.497
569.00	90.134
570.00	89.792
571.00	89.757
572.00	89.695
573.00	89.926
574.00	89.831
575.00	90.158
576.00	90.149
577.00	90.199
578.00	90.084
579.00	90.135
580.00	89.971
581.00	89.824
582.00	89.768
583.00	89.580
584.00	89.432
585.00	89.430
586.00	89.535
587.00	89.523
588.00	89.639
589.00	89.807
590.00	89.699
591.00	89.804
592.00	89.808
593.00	89.844
594.00	89.843
595.00	89.995
596.00	89.890
597.00	89.861
598.00	89.773
599.00	89.702
600.00	89.518
601.00	89.556
602.00	89.566
603.00	89.669
604.00	89.753
605.00	89.680
606.00	89.560
607.00	89.398
608.00	89.184
609.00	89.007
610.00	89.036
611.00	89.076
612.00	89.174
613.00	89.302
614.00	89.343
615.00	89.440
616.00	89.567
617.00	89.746
618.00	89.853
619.00	89.965
620.00	89.920
621.00	89.924
622.00	89.903
623.00	89.913
624.00	89.934
625.00	90.105
626.00	90.176
627.00	90.262
628.00	90.194
629.00	90.352
630.00	90.400
631.00	90.334
632.00	90.330
633.00	90.511
634.00	90.472
635.00	90.549
636.00	90.720
637.00	90.849
638.00	90.898
639.00	91.007
640.00	91.029
641.00	90.966
642.00	90.923
643.00	91.023
644.00	91.095
645.00	91.301
646.00	91.330
647.00	91.335
648.00	91.251
649.00	91.193
650.00	90.968
651.00	91.072
652.00	90.981
653.00	90.896
654.00	90.879
655.00	90.948
656.00	90.747
657.00	90.731
658.00	90.760
659.00	90.614
660.00	90.582
661.00	90.605
662.00	90.534
663.00	90.434
664.00	90.484
665.00	90.235
666.00	90.234
667.00	90.191
668.00	90.065
669.00	90.065
670.00	90.153
671.00	90.183
672.00	90.046
673.00	90.151
674.00	90.191
675.00	90.214
676.00	90.222
677.00	90.510
678.00	90.553
679.00	90.659
680.00	90.761
681.00	90.856
682.00	91.034
683.00	91.148
684.00	91.193
685.00	91.388
686.00	91.500
687.00	91.684
688.00	92.053
689.00	92.225
690.00	92.203
691.00	92.284
692.00	92.298
693.00	92.415
694.00	92.446
695.00	92.644
696.00	92.836
697.00	92.799
698.00	92.758
699.00	92.977
700.00	93.196
701.00	93.176
702.00	93.544
703.00	93.671
704.00	93.594
705.00	93.651
706.00	93.615
707.00	93.535
708.00	93.320
709.00	93.244
710.00	93.087
711.00	93.271
712.00	93.163
713.00	93.248
714.00	93.105
715.00	93.047
716.00	92.772
717.00	92.717
718.00	92.422
719.00	92.481
720.00	92.204
721.00	92.044
722.00	91.699
723.00	91.699
724.00	91.460
725.00	91.491
726.00	91.320
727.00	91.122
728.00	90.908
729.00	90.473
730.00	89.986
731.00	89.682
732.00	89.491
733.00	89.169
734.00	89.130
735.00	88.924
736.00	88.586
737.00	88.295
738.00	87.916
739.00	87.550
740.00	87.131
741.00	86.821
742.00	86.290
743.00	85.707
744.00	85.337
745.00	85.086
746.00	84.547
747.00	84.327
748.00	84.120
749.00	83.610
750.00	83.100
751.00	82.840
752.00	82.061
753.00	81.652
754.00	81.142
755.00	80.679
756.00	80.186
757.00	79.955
758.00	79.340
759.00	79.016
760.00	78.317
761.00	77.646
762.00	77.145
763.00	76.555
764.00	75.807
765.00	75.214
766.00	74.653
767.00	73.968
768.00	73.390
769.00	72.694
770.00	72.159
771.00	71.562
772.00	71.047
773.00	70.665
774.00	69.839
775.00	69.109
776.00	68.500
777.00	67.744
778.00	66.903
779.00	66.497
780.00	65.952
781.00	65.183
782.00	64.340
783.00	63.595
784.00	62.861
785.00	62.317
786.00	61.816
787.00	61.397
788.00	60.978
789.00	60.338
790.00	59.540
791.00	58.714
792.00	57.981
793.00	57.285
794.00	56.813
795.00	56.267
796.00	55.832
797.00	55.235
798.00	54.622
799.00	53.976
800.00	53.481
801.00	52.989
802.00	52.805
803.00	52.559
804.00	52.105
805.00	51.798
806.00	51.335
807.00	50.868
808.00	50.358
809.00	50.104
810.00	49.806
811.00	49.403
812.00	49.058
813.00	48.720
814.00	48.499
815.00	48.132
816.00	48.199
817.00	48.133
818.00	48.162
819.00	48.027
820.00	48.048
821.00	48.125
822.00	48.100
823.00	47.944
824.00	48.180
825.00	48.324
826.00	48.186
827.00	47.921
828.00	48.058
829.00	47.655
830.00	47.333
831.00	47.274
832.00	47.581
833.00	47.723
834.00	47.972
835.00	48.397
836.00	48.581
837.00	48.915
838.00	49.054
839.00	49.529
840.00	49.427
841.00	49.828
842.00	50.022
843.00	49.889
844.00	50.013
845.00	50.622
846.00	51.060
847.00	51.264
848.00	51.799
849.00	52.088
850.00	52.186
851.00	52.146
852.00	52.073
853.00	52.432
854.00	52.888
855.00	52.936
856.00	53.256
857.00	53.975
858.00	54.840
859.00	55.157
860.00	55.942
861.00	56.299
862.00	56.677
863.00	56.584
864.00	56.922
865.00	57.272
866.00	57.646
867.00	57.881
868.00	57.880
869.00	57.852
870.00	58.046
871.00	58.626
872.00	58.617
873.00	59.307
874.00	60.091
875.00	60.183
876.00	60.415
877.00	61.092
878.00	61.530
879.00	61.717
880.00	62.398
881.00	63.000
882.00	63.302
883.00	63.413
884.00	63.627
885.00	63.883
886.00	64.493
887.00	64.769
888.00	64.956
889.00	65.840
890.00	66.438
891.00	66.452
892.00	66.836
893.00	67.795
894.00	67.714
895.00	68.258
896.00	68.226
897.00	68.551
898.00	68.471
899.00	68.810
900.00	68.523
901.00	68.753
902.00	69.599
903.00	69.984
904.00	69.976
905.00	70.097
906.00	70.720
907.00	70.645
908.00	71.104
909.00	71.537
910.00	71.640
911.00	71.882
912.00	71.962
913.00	71.961
914.00	72.407
915.00	73.318
916.00	73.422
917.00	74.413
918.00	74.489
919.00	75.194
920.00	75.028
921.00	75.994
922.00	75.763
923.00	75.435
924.00	75.072
925.00	75.442
926.00	74.565
927.00	74.390
928.00	76.008
929.00	75.912
930.00	76.654
931.00	77.214
932.00	78.790
933.00	78.979
934.00	79.366
935.00	79.390
936.00	78.769
937.00	78.183
938.00	78.253
939.00	78.981
940.00	78.976
941.00	79.866
942.00	79.252
943.00	78.633
944.00	79.148
945.00	80.169
946.00	80.644
947.00	81.569
948.00	80.647
949.00	80.625
950.00	80.257
951.00	80.181
952.00	79.266
953.00	80.158
954.00	79.157
955.00	78.638
956.00	77.376
957.00	77.436
958.00	80.215
959.00	80.134
960.00	81.216
961.00	83.454
962.00	85.175
963.00	83.910
964.00	86.044
965.00	87.992
966.00	88.357
967.00	87.537
968.00	87.707
969.00	85.637
970.00	84.532
971.00	84.712
972.00	88.086
973.00	92.298
974.00	95.755
975.00	98.423
976.00	92.769
977.00	87.615
978.00	83.022
979.00	82.022
980.00	75.044
981.00	81.471
982.00	85.246
983.00	83.976
984.00	84.078
985.00	87.165
986.00	85.732
987.00	88.264
988.00	87.288
989.00	88.964
990.00	90.017
991.00	90.084
992.00	85.496
993.00	93.443
994.00	87.428
995.00	84.053
996.00	76.045
997.00	76.408
998.00	70.349
999.00	88.094
1000.00	75.996
>>>>>End Processed Spectral Data<<<<<
