SpectraSuite Data File
++++++++++++++++++++++++++++++++++++
Date: Thu Oct 10 11:16:01 CEST 2019
User: admin
Dark Spectrum Present: Yes
Reference Spectrum Present: Yes
Number of Sampled Component Spectra: 1
Spectrometers: USB2G49547
Integration Time (usec): 100000 (USB2G49547)
Spectra Averaged: 10 (USB2G49547)
Boxcar Smoothing: 2 (USB2G49547)
Correct for Electrical Dark: No (USB2G49547)
Strobe/Lamp Enabled: No (USB2G49547)
Correct for Detector Non-linearity: No (USB2G49547)
Correct for Stray Light: No (USB2G49547)
Number of Pixels in Processed Spectrum: 651
>>>>>Begin Processed Spectral Data<<<<<
350.00	241.565
351.00	204.036
352.00	156.485
353.00	130.215
354.00	106.353
355.00	101.077
356.00	94.758
357.00	93.583
358.00	113.130
359.00	112.521
360.00	125.060
361.00	141.840
362.00	124.197
363.00	118.072
364.00	118.931
365.00	116.654
366.00	100.697
367.00	98.489
368.00	88.042
369.00	106.019
370.00	99.592
371.00	104.388
372.00	102.674
373.00	111.623
374.00	64.775
375.00	86.346
376.00	71.024
377.00	92.679
378.00	68.095
379.00	94.012
380.00	80.080
381.00	82.329
382.00	87.006
383.00	137.888
384.00	97.412
385.00	130.119
386.00	121.366
387.00	155.183
388.00	96.622
389.00	123.974
390.00	118.240
391.00	118.149
392.00	113.502
393.00	122.983
394.00	137.497
395.00	196.693
396.00	190.715
397.00	163.637
398.00	200.611
399.00	150.028
400.00	247.044
401.00	178.473
402.00	333.264
403.00	229.776
404.00	199.478
405.00	93.819
406.00	101.639
407.00	90.400
408.00	98.141
409.00	110.294
410.00	101.378
411.00	124.565
412.00	272.802
413.00	418.764
414.00	2180.155
415.00	-159.324
416.00	-28.789
417.00	43.611
418.00	68.202
419.00	116.695
420.00	78.207
421.00	80.731
422.00	93.303
423.00	86.253
424.00	87.837
425.00	115.251
426.00	84.879
427.00	89.462
428.00	93.343
429.00	108.057
430.00	94.382
431.00	105.226
432.00	102.223
433.00	104.472
434.00	99.843
435.00	92.431
436.00	92.635
437.00	89.775
438.00	90.353
439.00	94.098
440.00	99.487
441.00	102.279
442.00	105.044
443.00	104.858
444.00	104.220
445.00	102.264
446.00	105.294
447.00	106.170
448.00	103.170
449.00	101.523
450.00	101.820
451.00	97.980
452.00	96.826
453.00	101.827
454.00	102.988
455.00	101.028
456.00	98.539
457.00	95.759
458.00	93.959
459.00	94.064
460.00	97.756
461.00	98.722
462.00	100.377
463.00	99.706
464.00	97.181
465.00	95.414
466.00	95.395
467.00	97.072
468.00	96.621
469.00	96.304
470.00	96.677
471.00	97.653
472.00	96.023
473.00	95.963
474.00	97.919
475.00	98.990
476.00	98.187
477.00	98.728
478.00	98.730
479.00	98.353
480.00	97.678
481.00	98.744
482.00	98.442
483.00	99.491
484.00	99.108
485.00	98.940
486.00	98.428
487.00	98.639
488.00	97.814
489.00	98.342
490.00	98.167
491.00	98.084
492.00	98.909
493.00	98.893
494.00	98.308
495.00	98.496
496.00	98.661
497.00	97.349
498.00	97.152
499.00	97.227
500.00	97.093
501.00	97.058
502.00	97.556
503.00	97.258
504.00	97.084
505.00	97.066
506.00	96.781
507.00	96.993
508.00	97.630
509.00	97.999
510.00	98.270
511.00	98.599
512.00	98.335
513.00	98.130
514.00	98.056
515.00	98.189
516.00	98.233
517.00	98.011
518.00	98.029
519.00	97.866
520.00	97.534
521.00	97.209
522.00	97.641
523.00	97.574
524.00	97.514
525.00	97.738
526.00	97.929
527.00	97.894
528.00	98.016
529.00	98.284
530.00	97.911
531.00	98.287
532.00	98.060
533.00	97.914
534.00	98.004
535.00	97.889
536.00	97.542
537.00	97.478
538.00	97.572
539.00	97.460
540.00	97.462
541.00	97.435
542.00	97.795
543.00	97.862
544.00	97.878
545.00	98.223
546.00	98.127
547.00	97.891
548.00	98.003
549.00	97.686
550.00	97.572
551.00	97.670
552.00	97.575
553.00	97.198
554.00	97.326
555.00	97.499
556.00	97.750
557.00	97.973
558.00	98.118
559.00	97.984
560.00	97.989
561.00	97.859
562.00	97.714
563.00	97.988
564.00	98.174
565.00	98.241
566.00	98.228
567.00	98.350
568.00	98.252
569.00	98.402
570.00	98.301
571.00	98.383
572.00	98.341
573.00	98.237
574.00	98.233
575.00	98.114
576.00	98.039
577.00	97.963
578.00	98.160
579.00	98.106
580.00	98.213
581.00	98.066
582.00	98.152
583.00	97.943
584.00	98.034
585.00	98.071
586.00	98.100
587.00	98.046
588.00	98.090
589.00	98.053
590.00	97.893
591.00	97.974
592.00	97.970
593.00	98.027
594.00	97.890
595.00	97.964
596.00	98.042
597.00	98.044
598.00	97.935
599.00	97.983
600.00	97.903
601.00	97.806
602.00	97.746
603.00	97.823
604.00	97.838
605.00	97.860
606.00	97.795
607.00	97.861
608.00	97.768
609.00	97.770
610.00	97.667
611.00	97.688
612.00	97.634
613.00	97.678
614.00	97.666
615.00	97.698
616.00	97.518
617.00	97.449
618.00	97.347
619.00	97.255
620.00	97.220
621.00	97.262
622.00	97.306
623.00	97.334
624.00	97.364
625.00	97.436
626.00	97.447
627.00	97.268
628.00	97.131
629.00	97.023
630.00	96.874
631.00	96.824
632.00	96.826
633.00	96.846
634.00	96.855
635.00	96.838
636.00	96.783
637.00	96.840
638.00	96.837
639.00	96.776
640.00	96.744
641.00	96.767
642.00	96.632
643.00	96.622
644.00	96.555
645.00	96.548
646.00	96.573
647.00	96.531
648.00	96.384
649.00	96.375
650.00	96.289
651.00	96.147
652.00	96.166
653.00	96.024
654.00	95.876
655.00	95.822
656.00	95.751
657.00	95.640
658.00	95.669
659.00	95.621
660.00	95.474
661.00	95.391
662.00	95.292
663.00	95.244
664.00	95.303
665.00	95.343
666.00	95.278
667.00	95.214
668.00	95.126
669.00	94.935
670.00	94.847
671.00	94.666
672.00	94.584
673.00	94.546
674.00	94.458
675.00	94.225
676.00	94.177
677.00	94.044
678.00	93.809
679.00	93.751
680.00	93.702
681.00	93.555
682.00	93.438
683.00	93.370
684.00	93.122
685.00	93.043
686.00	92.992
687.00	92.862
688.00	92.622
689.00	92.487
690.00	92.360
691.00	92.116
692.00	91.917
693.00	91.822
694.00	91.724
695.00	91.523
696.00	91.441
697.00	91.294
698.00	91.172
699.00	90.939
700.00	90.799
701.00	90.559
702.00	90.388
703.00	90.167
704.00	89.886
705.00	89.504
706.00	89.254
707.00	89.076
708.00	88.724
709.00	88.600
710.00	88.450
711.00	88.224
712.00	87.822
713.00	87.663
714.00	87.461
715.00	87.161
716.00	86.866
717.00	86.796
718.00	86.549
719.00	85.973
720.00	85.725
721.00	85.453
722.00	85.030
723.00	84.698
724.00	84.606
725.00	84.279
726.00	83.999
727.00	83.703
728.00	83.269
729.00	82.805
730.00	82.516
731.00	81.979
732.00	81.606
733.00	81.340
734.00	81.040
735.00	80.577
736.00	80.373
737.00	80.146
738.00	79.710
739.00	79.445
740.00	78.953
741.00	78.648
742.00	78.032
743.00	77.812
744.00	77.572
745.00	77.336
746.00	76.978
747.00	76.860
748.00	76.496
749.00	75.903
750.00	75.639
751.00	75.025
752.00	74.597
753.00	73.996
754.00	73.983
755.00	73.442
756.00	73.143
757.00	72.728
758.00	72.520
759.00	71.891
760.00	71.833
761.00	71.560
762.00	71.184
763.00	70.967
764.00	70.737
765.00	70.422
766.00	70.304
767.00	70.113
768.00	69.895
769.00	69.719
770.00	69.480
771.00	69.373
772.00	69.005
773.00	68.792
774.00	68.491
775.00	67.855
776.00	67.272
777.00	67.090
778.00	66.714
779.00	66.499
780.00	66.626
781.00	66.681
782.00	66.432
783.00	66.457
784.00	66.312
785.00	66.309
786.00	66.407
787.00	66.428
788.00	66.318
789.00	66.151
790.00	65.777
791.00	65.636
792.00	65.692
793.00	65.553
794.00	65.483
795.00	65.790
796.00	65.809
797.00	65.884
798.00	65.917
799.00	66.132
800.00	66.183
801.00	65.882
802.00	65.933
803.00	66.358
804.00	66.523
805.00	66.551
806.00	66.885
807.00	66.848
808.00	66.643
809.00	66.325
810.00	66.280
811.00	66.467
812.00	66.595
813.00	66.790
814.00	67.144
815.00	67.467
816.00	67.627
817.00	67.842
818.00	67.772
819.00	67.777
820.00	67.856
821.00	67.743
822.00	68.012
823.00	68.432
824.00	68.507
825.00	68.477
826.00	69.120
827.00	69.295
828.00	69.535
829.00	70.087
830.00	70.587
831.00	70.300
832.00	70.587
833.00	70.471
834.00	70.452
835.00	70.434
836.00	70.508
837.00	70.302
838.00	70.537
839.00	70.911
840.00	71.260
841.00	71.784
842.00	72.017
843.00	72.233
844.00	72.244
845.00	72.130
846.00	72.239
847.00	72.602
848.00	72.819
849.00	73.016
850.00	73.432
851.00	73.467
852.00	73.522
853.00	73.897
854.00	74.124
855.00	74.457
856.00	74.787
857.00	75.167
858.00	75.259
859.00	75.501
860.00	75.576
861.00	75.610
862.00	75.887
863.00	75.952
864.00	76.240
865.00	76.293
866.00	76.832
867.00	76.681
868.00	76.911
869.00	77.153
870.00	77.162
871.00	77.147
872.00	77.344
873.00	77.375
874.00	77.285
875.00	77.646
876.00	77.992
877.00	77.986
878.00	78.224
879.00	78.379
880.00	78.326
881.00	78.307
882.00	78.702
883.00	78.782
884.00	79.149
885.00	79.586
886.00	79.689
887.00	79.717
888.00	79.823
889.00	79.933
890.00	79.886
891.00	80.132
892.00	80.174
893.00	80.567
894.00	80.557
895.00	80.498
896.00	80.769
897.00	81.154
898.00	80.688
899.00	80.484
900.00	80.829
901.00	80.771
902.00	80.607
903.00	81.040
904.00	81.266
905.00	81.589
906.00	81.849
907.00	81.927
908.00	82.082
909.00	82.521
910.00	82.691
911.00	82.391
912.00	82.680
913.00	82.887
914.00	82.902
915.00	82.908
916.00	83.184
917.00	83.724
918.00	83.845
919.00	83.837
920.00	83.568
921.00	83.683
922.00	83.180
923.00	83.006
924.00	83.240
925.00	83.738
926.00	84.194
927.00	84.600
928.00	84.890
929.00	84.785
930.00	84.688
931.00	84.138
932.00	84.158
933.00	84.379
934.00	84.604
935.00	84.255
936.00	84.499
937.00	84.475
938.00	84.266
939.00	84.277
940.00	84.579
941.00	84.515
942.00	84.469
943.00	84.895
944.00	84.626
945.00	85.038
946.00	85.221
947.00	85.156
948.00	84.920
949.00	84.711
950.00	84.469
951.00	84.003
952.00	84.760
953.00	84.818
954.00	85.155
955.00	85.571
956.00	86.609
957.00	86.169
958.00	85.804
959.00	86.670
960.00	86.694
961.00	85.005
962.00	84.676
963.00	85.189
964.00	84.314
965.00	83.989
966.00	84.492
967.00	85.305
968.00	84.588
969.00	86.104
970.00	84.573
971.00	84.826
972.00	85.114
973.00	86.555
974.00	84.985
975.00	85.539
976.00	86.993
977.00	86.479
978.00	85.429
979.00	85.430
980.00	87.630
981.00	86.666
982.00	88.035
983.00	88.247
984.00	89.249
985.00	87.425
986.00	86.545
987.00	85.301
988.00	85.435
989.00	85.382
990.00	86.466
991.00	87.281
992.00	84.249
993.00	82.436
994.00	81.316
995.00	80.573
996.00	81.651
997.00	86.278
998.00	89.669
999.00	101.365
1000.00	92.035
>>>>>End Processed Spectral Data<<<<<
