SpectraSuite Data File
++++++++++++++++++++++++++++++++++++
Date: Thu Oct 10 10:57:51 CEST 2019
User: admin
Dark Spectrum Present: Yes
Reference Spectrum Present: Yes
Number of Sampled Component Spectra: 1
Spectrometers: USB2G49547
Integration Time (usec): 100000 (USB2G49547)
Spectra Averaged: 10 (USB2G49547)
Boxcar Smoothing: 2 (USB2G49547)
Correct for Electrical Dark: No (USB2G49547)
Strobe/Lamp Enabled: No (USB2G49547)
Correct for Detector Non-linearity: No (USB2G49547)
Correct for Stray Light: No (USB2G49547)
Number of Pixels in Processed Spectrum: 651
>>>>>Begin Processed Spectral Data<<<<<
350.00	119.195
351.00	40.983
352.00	76.907
353.00	63.498
354.00	88.490
355.00	52.149
356.00	64.128
357.00	36.595
358.00	22.762
359.00	20.664
360.00	29.811
361.00	20.541
362.00	-97.355
363.00	-133.115
364.00	62.304
365.00	25.599
366.00	32.375
367.00	58.955
368.00	58.313
369.00	18.701
370.00	38.500
371.00	70.253
372.00	22.491
373.00	45.532
374.00	74.063
375.00	61.994
376.00	50.674
377.00	79.446
378.00	89.402
379.00	144.838
380.00	-443.387
381.00	-484.928
382.00	-1466.511
383.00	46.695
384.00	83.788
385.00	84.855
386.00	61.522
387.00	59.621
388.00	62.759
389.00	44.278
390.00	21.065
391.00	3.490
392.00	-20.143
393.00	2.855
394.00	12.796
395.00	22.726
396.00	68.121
397.00	88.805
398.00	93.686
399.00	60.388
400.00	18.880
401.00	64.741
402.00	111.878
403.00	119.188
404.00	85.718
405.00	94.889
406.00	72.824
407.00	55.465
408.00	51.505
409.00	53.235
410.00	54.113
411.00	42.339
412.00	48.012
413.00	78.399
414.00	100.387
415.00	100.829
416.00	121.870
417.00	120.560
418.00	125.749
419.00	132.462
420.00	129.413
421.00	125.184
422.00	121.993
423.00	100.310
424.00	89.672
425.00	84.218
426.00	82.919
427.00	87.382
428.00	96.564
429.00	99.770
430.00	100.007
431.00	98.897
432.00	98.236
433.00	92.830
434.00	91.424
435.00	93.368
436.00	100.679
437.00	101.115
438.00	98.836
439.00	97.192
440.00	97.945
441.00	96.284
442.00	97.723
443.00	98.945
444.00	103.557
445.00	102.185
446.00	99.261
447.00	99.848
448.00	99.861
449.00	97.445
450.00	97.126
451.00	92.330
452.00	91.049
453.00	92.974
454.00	93.413
455.00	97.831
456.00	101.624
457.00	100.861
458.00	100.419
459.00	99.941
460.00	98.745
461.00	98.652
462.00	97.957
463.00	96.361
464.00	96.375
465.00	95.852
466.00	96.501
467.00	97.065
468.00	97.417
469.00	97.516
470.00	98.069
471.00	98.866
472.00	98.347
473.00	99.611
474.00	99.739
475.00	99.240
476.00	98.244
477.00	98.676
478.00	97.557
479.00	96.793
480.00	96.556
481.00	97.289
482.00	97.793
483.00	98.315
484.00	99.143
485.00	98.525
486.00	98.856
487.00	98.758
488.00	98.824
489.00	98.594
490.00	99.537
491.00	99.215
492.00	100.188
493.00	100.056
494.00	100.277
495.00	99.741
496.00	98.990
497.00	98.162
498.00	98.346
499.00	98.421
500.00	98.906
501.00	99.462
502.00	99.302
503.00	99.051
504.00	98.864
505.00	98.859
506.00	99.106
507.00	99.391
508.00	99.455
509.00	99.417
510.00	98.898
511.00	98.352
512.00	97.849
513.00	97.969
514.00	97.953
515.00	98.545
516.00	98.504
517.00	98.905
518.00	98.969
519.00	99.321
520.00	98.960
521.00	99.193
522.00	98.874
523.00	98.848
524.00	98.516
525.00	98.836
526.00	99.178
527.00	99.649
528.00	99.622
529.00	99.723
530.00	99.479
531.00	99.378
532.00	99.004
533.00	98.833
534.00	98.449
535.00	98.560
536.00	98.233
537.00	98.226
538.00	98.340
539.00	98.907
540.00	98.613
541.00	98.701
542.00	98.765
543.00	98.816
544.00	98.242
545.00	98.640
546.00	98.780
547.00	98.570
548.00	98.385
549.00	98.676
550.00	98.393
551.00	98.266
552.00	98.252
553.00	98.331
554.00	97.899
555.00	97.971
556.00	97.721
557.00	97.769
558.00	97.396
559.00	97.581
560.00	97.502
561.00	97.578
562.00	97.500
563.00	97.807
564.00	97.863
565.00	97.795
566.00	97.699
567.00	97.796
568.00	97.509
569.00	97.472
570.00	97.197
571.00	97.191
572.00	97.368
573.00	97.325
574.00	97.035
575.00	97.257
576.00	97.146
577.00	96.687
578.00	96.692
579.00	96.852
580.00	96.553
581.00	96.444
582.00	96.421
583.00	96.194
584.00	96.092
585.00	96.195
586.00	96.264
587.00	96.359
588.00	96.538
589.00	96.429
590.00	96.466
591.00	96.304
592.00	95.996
593.00	95.754
594.00	95.752
595.00	95.469
596.00	95.324
597.00	95.372
598.00	95.329
599.00	95.228
600.00	95.234
601.00	95.107
602.00	94.997
603.00	94.923
604.00	94.834
605.00	94.813
606.00	94.970
607.00	94.857
608.00	94.844
609.00	94.718
610.00	94.567
611.00	94.255
612.00	94.157
613.00	94.051
614.00	94.016
615.00	93.955
616.00	93.959
617.00	93.846
618.00	93.642
619.00	93.495
620.00	93.157
621.00	92.926
622.00	92.641
623.00	92.316
624.00	91.803
625.00	91.597
626.00	91.250
627.00	90.930
628.00	90.711
629.00	90.528
630.00	90.228
631.00	89.940
632.00	89.763
633.00	89.439
634.00	89.135
635.00	88.830
636.00	88.644
637.00	88.176
638.00	87.804
639.00	87.519
640.00	87.143
641.00	86.667
642.00	86.562
643.00	86.347
644.00	86.035
645.00	85.701
646.00	85.554
647.00	85.122
648.00	84.859
649.00	84.502
650.00	84.360
651.00	84.259
652.00	84.117
653.00	83.887
654.00	83.770
655.00	83.601
656.00	83.272
657.00	83.203
658.00	83.003
659.00	82.875
660.00	82.806
661.00	82.663
662.00	82.388
663.00	82.374
664.00	82.255
665.00	82.046
666.00	82.061
667.00	82.122
668.00	82.053
669.00	82.191
670.00	82.266
671.00	82.226
672.00	82.305
673.00	82.505
674.00	82.557
675.00	82.792
676.00	82.962
677.00	83.008
678.00	82.938
679.00	83.058
680.00	82.979
681.00	83.138
682.00	83.283
683.00	83.421
684.00	83.472
685.00	83.581
686.00	83.392
687.00	83.411
688.00	83.630
689.00	83.893
690.00	84.089
691.00	84.391
692.00	84.604
693.00	84.715
694.00	84.736
695.00	84.919
696.00	85.066
697.00	85.101
698.00	85.269
699.00	85.362
700.00	85.504
701.00	85.555
702.00	85.755
703.00	85.803
704.00	86.089
705.00	86.110
706.00	86.321
707.00	86.579
708.00	86.732
709.00	86.673
710.00	86.954
711.00	87.095
712.00	87.192
713.00	87.205
714.00	87.401
715.00	87.258
716.00	87.307
717.00	87.176
718.00	87.426
719.00	87.502
720.00	87.808
721.00	88.082
722.00	88.280
723.00	88.222
724.00	88.142
725.00	87.947
726.00	87.915
727.00	87.886
728.00	87.992
729.00	88.396
730.00	88.580
731.00	88.602
732.00	88.832
733.00	88.972
734.00	88.776
735.00	89.001
736.00	89.145
737.00	89.120
738.00	88.996
739.00	89.126
740.00	89.198
741.00	89.312
742.00	89.715
743.00	90.179
744.00	90.250
745.00	90.295
746.00	90.200
747.00	90.325
748.00	90.045
749.00	90.237
750.00	90.348
751.00	90.386
752.00	90.165
753.00	90.372
754.00	90.406
755.00	90.433
756.00	90.732
757.00	90.768
758.00	90.747
759.00	90.825
760.00	90.865
761.00	90.534
762.00	90.507
763.00	90.602
764.00	90.424
765.00	90.229
766.00	90.443
767.00	90.382
768.00	90.215
769.00	90.367
770.00	90.595
771.00	90.574
772.00	90.573
773.00	90.720
774.00	90.977
775.00	91.008
776.00	91.214
777.00	91.833
778.00	92.182
779.00	92.227
780.00	92.197
781.00	92.159
782.00	91.928
783.00	91.813
784.00	91.757
785.00	92.032
786.00	92.001
787.00	91.961
788.00	91.908
789.00	91.713
790.00	91.541
791.00	91.653
792.00	91.577
793.00	91.580
794.00	91.887
795.00	92.059
796.00	91.963
797.00	91.916
798.00	92.035
799.00	91.764
800.00	91.655
801.00	91.723
802.00	91.787
803.00	91.720
804.00	91.868
805.00	91.917
806.00	92.108
807.00	92.092
808.00	92.219
809.00	92.074
810.00	92.235
811.00	91.962
812.00	92.045
813.00	91.972
814.00	91.882
815.00	91.630
816.00	91.792
817.00	91.800
818.00	91.785
819.00	92.177
820.00	92.204
821.00	92.021
822.00	92.239
823.00	92.587
824.00	92.665
825.00	92.702
826.00	93.289
827.00	93.023
828.00	92.762
829.00	92.577
830.00	92.709
831.00	92.181
832.00	92.239
833.00	92.363
834.00	92.573
835.00	92.396
836.00	92.952
837.00	93.182
838.00	93.013
839.00	93.052
840.00	93.180
841.00	92.947
842.00	92.811
843.00	92.977
844.00	92.608
845.00	92.257
846.00	91.973
847.00	92.373
848.00	92.246
849.00	92.545
850.00	92.665
851.00	92.850
852.00	92.599
853.00	92.841
854.00	92.859
855.00	93.232
856.00	92.976
857.00	92.589
858.00	92.280
859.00	92.229
860.00	92.005
861.00	91.875
862.00	92.311
863.00	92.449
864.00	92.590
865.00	93.112
866.00	93.557
867.00	93.570
868.00	93.684
869.00	93.485
870.00	92.914
871.00	92.946
872.00	92.666
873.00	92.549
874.00	92.292
875.00	92.498
876.00	92.780
877.00	92.904
878.00	92.821
879.00	93.196
880.00	93.370
881.00	92.784
882.00	93.418
883.00	94.117
884.00	93.766
885.00	93.854
886.00	93.892
887.00	93.314
888.00	92.752
889.00	93.136
890.00	93.328
891.00	93.408
892.00	93.412
893.00	93.272
894.00	92.688
895.00	92.336
896.00	92.219
897.00	91.701
898.00	91.715
899.00	92.664
900.00	92.906
901.00	93.536
902.00	94.081
903.00	94.047
904.00	93.913
905.00	93.697
906.00	93.556
907.00	94.331
908.00	95.243
909.00	94.924
910.00	94.861
911.00	94.578
912.00	94.019
913.00	93.267
914.00	93.698
915.00	93.860
916.00	93.522
917.00	93.201
918.00	94.116
919.00	93.183
920.00	92.869
921.00	93.290
922.00	92.962
923.00	91.909
924.00	93.239
925.00	93.110
926.00	93.531
927.00	94.004
928.00	95.377
929.00	95.079
930.00	95.534
931.00	95.346
932.00	94.950
933.00	93.416
934.00	94.502
935.00	94.637
936.00	94.017
937.00	94.952
938.00	96.265
939.00	95.072
940.00	95.376
941.00	97.374
942.00	97.498
943.00	96.575
944.00	95.546
945.00	95.492
946.00	94.123
947.00	92.854
948.00	91.854
949.00	91.904
950.00	91.975
951.00	92.217
952.00	92.368
953.00	92.917
954.00	93.916
955.00	93.472
956.00	92.625
957.00	95.032
958.00	95.824
959.00	95.165
960.00	94.578
961.00	95.982
962.00	93.500
963.00	92.718
964.00	93.029
965.00	93.121
966.00	94.024
967.00	94.821
968.00	95.313
969.00	96.723
970.00	100.083
971.00	98.104
972.00	96.175
973.00	96.864
974.00	93.316
975.00	89.140
976.00	90.256
977.00	94.875
978.00	95.303
979.00	95.437
980.00	95.878
981.00	97.144
982.00	94.318
983.00	88.830
984.00	91.211
985.00	88.356
986.00	88.850
987.00	88.425
988.00	93.027
989.00	93.085
990.00	95.866
991.00	90.231
992.00	89.308
993.00	85.162
994.00	77.759
995.00	78.739
996.00	79.858
997.00	80.847
998.00	80.269
999.00	90.059
1000.00	77.325
>>>>>End Processed Spectral Data<<<<<
