SpectraSuite Data File
++++++++++++++++++++++++++++++++++++
Date: Thu Oct 10 10:38:41 CEST 2019
User: admin
Dark Spectrum Present: Yes
Reference Spectrum Present: Yes
Number of Sampled Component Spectra: 1
Spectrometers: USB2G49547
Integration Time (usec): 100000 (USB2G49547)
Spectra Averaged: 10 (USB2G49547)
Boxcar Smoothing: 2 (USB2G49547)
Correct for Electrical Dark: No (USB2G49547)
Strobe/Lamp Enabled: No (USB2G49547)
Correct for Detector Non-linearity: No (USB2G49547)
Correct for Stray Light: No (USB2G49547)
Number of Pixels in Processed Spectrum: 651
>>>>>Begin Processed Spectral Data<<<<<
350.00	-51.031
351.00	187.256
352.00	413.326
353.00	143.969
354.00	157.966
355.00	185.182
356.00	451.366
357.00	174.255
358.00	-24280.586
359.00	134.016
360.00	111.153
361.00	59.428
362.00	28.831
363.00	24.038
364.00	28.120
365.00	43.458
366.00	156.412
367.00	112.202
368.00	150.977
369.00	1693.481
370.00	-1034.883
371.00	174.113
372.00	109.976
373.00	-1303.256
374.00	6.670
375.00	-58.637
376.00	-28.147
377.00	-103.903
378.00	-128.026
379.00	-84.751
380.00	4.255
381.00	42.197
382.00	96.410
383.00	59.871
384.00	46.766
385.00	-5.710
386.00	-33.568
387.00	-23.017
388.00	30.603
389.00	29.759
390.00	51.169
391.00	59.296
392.00	77.993
393.00	96.208
394.00	110.346
395.00	110.722
396.00	115.068
397.00	99.601
398.00	72.770
399.00	52.754
400.00	91.186
401.00	22.257
402.00	3.387
403.00	18.649
404.00	26.620
405.00	-19.032
406.00	21.913
407.00	47.049
408.00	55.741
409.00	56.015
410.00	70.722
411.00	69.357
412.00	69.896
413.00	54.357
414.00	65.143
415.00	63.661
416.00	71.089
417.00	65.533
418.00	72.303
419.00	63.432
420.00	70.926
421.00	66.494
422.00	72.473
423.00	79.410
424.00	89.303
425.00	92.845
426.00	97.749
427.00	92.467
428.00	89.723
429.00	84.090
430.00	79.383
431.00	80.236
432.00	86.998
433.00	86.918
434.00	86.664
435.00	92.580
436.00	92.694
437.00	91.917
438.00	93.330
439.00	96.940
440.00	93.493
441.00	93.043
442.00	91.697
443.00	91.972
444.00	95.147
445.00	96.459
446.00	95.352
447.00	93.320
448.00	90.691
449.00	87.275
450.00	83.661
451.00	83.361
452.00	87.843
453.00	90.588
454.00	88.436
455.00	89.320
456.00	92.160
457.00	90.545
458.00	89.632
459.00	92.047
460.00	91.655
461.00	89.793
462.00	89.587
463.00	90.416
464.00	89.874
465.00	91.133
466.00	91.649
467.00	90.965
468.00	90.390
469.00	89.699
470.00	89.686
471.00	89.033
472.00	90.076
473.00	89.465
474.00	90.708
475.00	90.373
476.00	90.552
477.00	90.682
478.00	91.131
479.00	90.967
480.00	91.895
481.00	91.915
482.00	90.110
483.00	90.039
484.00	89.621
485.00	88.843
486.00	89.349
487.00	90.782
488.00	90.590
489.00	92.029
490.00	92.598
491.00	91.865
492.00	91.769
493.00	91.504
494.00	90.263
495.00	90.098
496.00	90.073
497.00	89.520
498.00	89.441
499.00	88.580
500.00	88.469
501.00	88.677
502.00	88.948
503.00	89.443
504.00	89.851
505.00	89.555
506.00	89.328
507.00	88.786
508.00	88.944
509.00	89.339
510.00	89.518
511.00	89.969
512.00	90.662
513.00	90.573
514.00	90.416
515.00	90.556
516.00	90.529
517.00	90.702
518.00	90.284
519.00	90.031
520.00	90.111
521.00	89.897
522.00	89.452
523.00	89.639
524.00	90.457
525.00	90.410
526.00	90.179
527.00	90.322
528.00	89.965
529.00	89.351
530.00	89.427
531.00	89.473
532.00	89.214
533.00	89.629
534.00	89.677
535.00	89.535
536.00	89.982
537.00	89.961
538.00	89.955
539.00	89.995
540.00	90.099
541.00	89.963
542.00	90.099
543.00	89.789
544.00	89.891
545.00	89.760
546.00	89.895
547.00	89.947
548.00	90.166
549.00	90.054
550.00	89.924
551.00	89.899
552.00	89.907
553.00	90.017
554.00	90.276
555.00	90.081
556.00	89.841
557.00	89.705
558.00	89.550
559.00	89.384
560.00	89.456
561.00	89.339
562.00	89.505
563.00	89.464
564.00	89.558
565.00	89.728
566.00	89.948
567.00	89.776
568.00	89.623
569.00	89.225
570.00	89.019
571.00	88.856
572.00	88.850
573.00	89.022
574.00	89.199
575.00	89.319
576.00	89.291
577.00	89.106
578.00	89.020
579.00	88.983
580.00	88.784
581.00	88.719
582.00	88.816
583.00	88.751
584.00	88.543
585.00	88.625
586.00	88.664
587.00	88.823
588.00	88.805
589.00	89.085
590.00	89.069
591.00	89.139
592.00	89.057
593.00	89.103
594.00	89.036
595.00	89.053
596.00	88.965
597.00	88.980
598.00	89.018
599.00	89.020
600.00	88.998
601.00	89.018
602.00	89.011
603.00	89.028
604.00	89.020
605.00	88.916
606.00	88.895
607.00	88.801
608.00	88.609
609.00	88.556
610.00	88.613
611.00	88.682
612.00	88.695
613.00	88.856
614.00	88.911
615.00	89.067
616.00	89.095
617.00	89.238
618.00	89.384
619.00	89.487
620.00	89.422
621.00	89.568
622.00	89.581
623.00	89.619
624.00	89.609
625.00	89.770
626.00	89.844
627.00	89.951
628.00	89.982
629.00	90.049
630.00	90.151
631.00	90.328
632.00	90.444
633.00	90.612
634.00	90.781
635.00	91.013
636.00	90.953
637.00	91.152
638.00	91.215
639.00	91.314
640.00	91.295
641.00	91.382
642.00	91.386
643.00	91.521
644.00	91.684
645.00	91.996
646.00	92.063
647.00	92.204
648.00	92.215
649.00	92.236
650.00	91.942
651.00	92.054
652.00	91.888
653.00	91.949
654.00	92.197
655.00	92.386
656.00	92.379
657.00	92.492
658.00	92.525
659.00	92.286
660.00	92.391
661.00	92.518
662.00	92.583
663.00	92.597
664.00	92.614
665.00	92.508
666.00	92.436
667.00	92.396
668.00	92.419
669.00	92.483
670.00	92.540
671.00	92.577
672.00	92.479
673.00	92.563
674.00	92.660
675.00	92.729
676.00	92.767
677.00	93.105
678.00	93.175
679.00	93.356
680.00	93.466
681.00	93.775
682.00	93.849
683.00	93.932
684.00	93.920
685.00	94.014
686.00	94.014
687.00	94.327
688.00	94.590
689.00	94.728
690.00	94.954
691.00	94.898
692.00	94.756
693.00	94.701
694.00	94.765
695.00	94.785
696.00	95.113
697.00	95.106
698.00	95.194
699.00	95.437
700.00	95.630
701.00	95.615
702.00	95.893
703.00	96.030
704.00	95.948
705.00	96.127
706.00	96.086
707.00	96.258
708.00	96.471
709.00	96.667
710.00	96.516
711.00	96.950
712.00	97.058
713.00	96.850
714.00	96.875
715.00	96.972
716.00	96.823
717.00	96.754
718.00	96.973
719.00	96.925
720.00	97.041
721.00	97.053
722.00	96.931
723.00	97.179
724.00	97.293
725.00	97.324
726.00	97.206
727.00	97.250
728.00	96.889
729.00	96.606
730.00	96.295
731.00	96.315
732.00	96.264
733.00	96.084
734.00	96.078
735.00	95.930
736.00	95.472
737.00	95.390
738.00	95.384
739.00	95.142
740.00	94.802
741.00	94.830
742.00	94.370
743.00	93.895
744.00	93.910
745.00	93.856
746.00	93.440
747.00	93.462
748.00	93.426
749.00	93.122
750.00	92.915
751.00	92.738
752.00	92.323
753.00	92.024
754.00	91.664
755.00	91.425
756.00	91.390
757.00	91.265
758.00	90.947
759.00	90.628
760.00	90.048
761.00	89.431
762.00	89.018
763.00	88.654
764.00	88.303
765.00	88.104
766.00	87.746
767.00	87.236
768.00	86.815
769.00	86.170
770.00	85.694
771.00	85.436
772.00	84.847
773.00	84.301
774.00	83.776
775.00	83.111
776.00	82.452
777.00	81.906
778.00	81.460
779.00	80.888
780.00	80.605
781.00	79.899
782.00	79.497
783.00	78.804
784.00	78.388
785.00	77.634
786.00	77.117
787.00	76.573
788.00	76.041
789.00	75.180
790.00	74.559
791.00	73.846
792.00	73.127
793.00	72.250
794.00	71.665
795.00	70.785
796.00	69.977
797.00	69.019
798.00	68.446
799.00	67.688
800.00	67.036
801.00	66.594
802.00	65.943
803.00	65.130
804.00	64.351
805.00	63.467
806.00	62.499
807.00	61.976
808.00	61.202
809.00	60.458
810.00	59.826
811.00	59.020
812.00	57.976
813.00	57.101
814.00	56.567
815.00	55.726
816.00	55.323
817.00	54.661
818.00	54.212
819.00	53.616
820.00	53.175
821.00	52.656
822.00	52.228
823.00	51.705
824.00	50.947
825.00	50.295
826.00	49.411
827.00	48.923
828.00	48.513
829.00	47.884
830.00	47.332
831.00	46.996
832.00	46.671
833.00	46.088
834.00	46.002
835.00	45.820
836.00	45.583
837.00	45.326
838.00	45.473
839.00	45.505
840.00	45.297
841.00	45.604
842.00	45.581
843.00	45.109
844.00	44.803
845.00	45.137
846.00	44.880
847.00	44.871
848.00	45.303
849.00	45.397
850.00	45.499
851.00	45.525
852.00	45.438
853.00	45.295
854.00	45.540
855.00	45.616
856.00	45.898
857.00	46.584
858.00	47.046
859.00	47.441
860.00	48.047
861.00	48.353
862.00	48.666
863.00	49.003
864.00	49.632
865.00	49.884
866.00	50.269
867.00	50.460
868.00	50.901
869.00	50.691
870.00	51.144
871.00	51.419
872.00	51.486
873.00	52.029
874.00	52.946
875.00	53.429
876.00	54.413
877.00	55.333
878.00	55.597
879.00	55.797
880.00	55.913
881.00	56.484
882.00	57.200
883.00	57.876
884.00	58.695
885.00	58.953
886.00	59.302
887.00	59.567
888.00	59.884
889.00	60.118
890.00	61.155
891.00	61.526
892.00	61.660
893.00	62.611
894.00	63.425
895.00	64.295
896.00	64.376
897.00	65.523
898.00	65.792
899.00	66.197
900.00	66.172
901.00	66.459
902.00	66.772
903.00	66.856
904.00	66.913
905.00	67.204
906.00	68.264
907.00	68.220
908.00	68.865
909.00	69.790
910.00	69.899
911.00	69.664
912.00	70.617
913.00	71.268
914.00	71.599
915.00	73.120
916.00	73.856
917.00	74.408
918.00	74.174
919.00	74.257
920.00	73.599
921.00	74.474
922.00	74.500
923.00	75.261
924.00	74.944
925.00	75.734
926.00	76.456
927.00	76.331
928.00	76.832
929.00	77.844
930.00	79.010
931.00	78.720
932.00	79.444
933.00	79.717
934.00	80.117
935.00	79.716
936.00	79.280
937.00	80.635
938.00	80.990
939.00	80.870
940.00	81.878
941.00	82.748
942.00	80.896
943.00	81.199
944.00	82.671
945.00	82.967
946.00	83.179
947.00	85.209
948.00	85.261
949.00	84.553
950.00	84.227
951.00	85.156
952.00	86.435
953.00	87.683
954.00	88.009
955.00	87.310
956.00	87.114
957.00	84.964
958.00	84.751
959.00	83.846
960.00	83.479
961.00	83.608
962.00	83.809
963.00	83.298
964.00	86.252
965.00	85.642
966.00	86.306
967.00	86.872
968.00	84.195
969.00	83.301
970.00	87.319
971.00	88.459
972.00	87.775
973.00	92.421
974.00	92.983
975.00	95.862
976.00	90.591
977.00	90.089
978.00	92.097
979.00	93.494
980.00	86.188
981.00	92.134
982.00	92.387
983.00	87.895
984.00	88.188
985.00	93.083
986.00	92.819
987.00	96.041
988.00	96.453
989.00	94.025
990.00	91.885
991.00	93.100
992.00	90.569
993.00	93.038
994.00	88.712
995.00	87.464
996.00	79.369
997.00	83.614
998.00	77.627
999.00	110.282
1000.00	60.980
>>>>>End Processed Spectral Data<<<<<
