SpectraSuite Data File
++++++++++++++++++++++++++++++++++++
Date: Thu Oct 10 10:43:45 CEST 2019
User: admin
Dark Spectrum Present: Yes
Reference Spectrum Present: Yes
Number of Sampled Component Spectra: 1
Spectrometers: USB2G49547
Integration Time (usec): 100000 (USB2G49547)
Spectra Averaged: 10 (USB2G49547)
Boxcar Smoothing: 2 (USB2G49547)
Correct for Electrical Dark: No (USB2G49547)
Strobe/Lamp Enabled: No (USB2G49547)
Correct for Detector Non-linearity: No (USB2G49547)
Correct for Stray Light: No (USB2G49547)
Number of Pixels in Processed Spectrum: 651
>>>>>Begin Processed Spectral Data<<<<<
350.00	107.642
351.00	21.844
352.00	104.404
353.00	78.706
354.00	94.698
355.00	92.387
356.00	427.463
357.00	132.770
358.00	-914.027
359.00	19.414
360.00	52.507
361.00	19.146
362.00	13.853
363.00	26.164
364.00	34.774
365.00	28.583
366.00	100.615
367.00	63.097
368.00	111.179
369.00	986.707
370.00	-629.000
371.00	179.999
372.00	211.662
373.00	-3168.239
374.00	-194.815
375.00	-166.720
376.00	-101.545
377.00	-140.468
378.00	-144.695
379.00	-95.237
380.00	-52.266
381.00	21.903
382.00	69.474
383.00	36.331
384.00	-1.729
385.00	16.510
386.00	-56.024
387.00	-57.734
388.00	-24.304
389.00	-10.489
390.00	-51.324
391.00	-14.858
392.00	-41.504
393.00	-20.531
394.00	5.759
395.00	7.784
396.00	28.326
397.00	25.623
398.00	40.229
399.00	36.657
400.00	28.424
401.00	-0.870
402.00	37.317
403.00	29.627
404.00	35.761
405.00	37.697
406.00	48.523
407.00	33.521
408.00	41.148
409.00	38.744
410.00	53.409
411.00	44.629
412.00	62.860
413.00	63.619
414.00	69.176
415.00	67.419
416.00	83.107
417.00	83.091
418.00	75.545
419.00	68.788
420.00	69.033
421.00	58.775
422.00	65.963
423.00	73.096
424.00	73.679
425.00	83.843
426.00	86.263
427.00	83.491
428.00	87.512
429.00	96.643
430.00	89.871
431.00	100.886
432.00	100.273
433.00	94.093
434.00	89.529
435.00	92.218
436.00	89.112
437.00	88.673
438.00	94.322
439.00	98.321
440.00	99.777
441.00	95.801
442.00	95.629
443.00	91.624
444.00	94.552
445.00	92.476
446.00	95.835
447.00	95.286
448.00	93.922
449.00	90.119
450.00	90.199
451.00	88.511
452.00	90.986
453.00	96.330
454.00	96.873
455.00	97.861
456.00	98.409
457.00	98.456
458.00	96.011
459.00	96.289
460.00	94.877
461.00	95.478
462.00	97.009
463.00	96.532
464.00	95.598
465.00	96.612
466.00	97.264
467.00	96.408
468.00	95.311
469.00	96.076
470.00	97.548
471.00	96.194
472.00	97.403
473.00	98.152
474.00	98.375
475.00	97.853
476.00	98.562
477.00	96.444
478.00	96.698
479.00	96.852
480.00	96.596
481.00	96.540
482.00	96.280
483.00	95.250
484.00	94.736
485.00	95.113
486.00	95.671
487.00	97.571
488.00	98.727
489.00	99.915
490.00	99.952
491.00	99.680
492.00	98.327
493.00	97.905
494.00	97.402
495.00	96.492
496.00	96.660
497.00	96.958
498.00	96.931
499.00	96.544
500.00	97.032
501.00	95.904
502.00	95.909
503.00	96.311
504.00	95.897
505.00	95.209
506.00	95.567
507.00	95.586
508.00	95.422
509.00	95.886
510.00	96.458
511.00	96.549
512.00	96.331
513.00	96.002
514.00	95.798
515.00	95.502
516.00	95.565
517.00	95.619
518.00	95.739
519.00	95.206
520.00	95.319
521.00	95.132
522.00	95.039
523.00	95.015
524.00	95.561
525.00	95.782
526.00	96.267
527.00	96.122
528.00	96.206
529.00	96.288
530.00	96.242
531.00	95.723
532.00	95.769
533.00	95.879
534.00	95.606
535.00	95.543
536.00	95.716
537.00	95.509
538.00	95.046
539.00	94.918
540.00	95.142
541.00	95.474
542.00	95.553
543.00	95.579
544.00	95.624
545.00	95.445
546.00	95.572
547.00	95.518
548.00	95.428
549.00	95.660
550.00	95.625
551.00	95.209
552.00	95.280
553.00	95.592
554.00	95.524
555.00	94.968
556.00	95.106
557.00	95.029
558.00	95.041
559.00	94.954
560.00	94.927
561.00	94.445
562.00	94.134
563.00	93.631
564.00	93.365
565.00	93.614
566.00	93.696
567.00	93.758
568.00	94.258
569.00	94.078
570.00	93.569
571.00	93.382
572.00	93.485
573.00	93.231
574.00	93.372
575.00	93.893
576.00	94.042
577.00	93.532
578.00	93.492
579.00	93.306
580.00	92.738
581.00	92.822
582.00	93.091
583.00	93.168
584.00	93.117
585.00	93.526
586.00	93.173
587.00	93.094
588.00	92.992
589.00	93.353
590.00	93.074
591.00	93.100
592.00	93.101
593.00	92.759
594.00	92.207
595.00	92.436
596.00	92.257
597.00	92.151
598.00	92.585
599.00	92.558
600.00	92.416
601.00	92.643
602.00	93.164
603.00	93.020
604.00	93.120
605.00	92.783
606.00	92.473
607.00	91.748
608.00	91.566
609.00	91.600
610.00	91.766
611.00	92.286
612.00	93.022
613.00	93.467
614.00	93.624
615.00	93.892
616.00	93.994
617.00	93.673
618.00	93.100
619.00	93.112
620.00	92.801
621.00	92.303
622.00	91.865
623.00	92.151
624.00	92.004
625.00	92.352
626.00	92.847
627.00	93.388
628.00	93.949
629.00	94.186
630.00	94.081
631.00	93.711
632.00	93.775
633.00	93.439
634.00	93.431
635.00	93.728
636.00	94.064
637.00	93.951
638.00	93.921
639.00	94.037
640.00	93.884
641.00	94.133
642.00	94.506
643.00	94.717
644.00	94.845
645.00	94.785
646.00	94.873
647.00	94.510
648.00	94.228
649.00	94.154
650.00	94.394
651.00	94.236
652.00	94.394
653.00	94.511
654.00	94.869
655.00	94.972
656.00	95.272
657.00	95.254
658.00	95.516
659.00	94.969
660.00	94.650
661.00	94.451
662.00	94.564
663.00	94.379
664.00	94.765
665.00	94.694
666.00	94.516
667.00	94.598
668.00	94.674
669.00	94.532
670.00	94.600
671.00	94.589
672.00	94.057
673.00	94.100
674.00	93.664
675.00	93.431
676.00	93.538
677.00	93.769
678.00	93.529
679.00	93.713
680.00	94.303
681.00	93.978
682.00	94.586
683.00	94.792
684.00	94.901
685.00	94.679
686.00	94.522
687.00	93.962
688.00	94.115
689.00	94.096
690.00	94.172
691.00	93.897
692.00	94.266
693.00	94.132
694.00	94.286
695.00	94.585
696.00	95.302
697.00	94.879
698.00	94.647
699.00	94.959
700.00	95.147
701.00	94.816
702.00	95.121
703.00	95.915
704.00	96.105
705.00	96.411
706.00	97.122
707.00	97.762
708.00	97.189
709.00	96.984
710.00	96.555
711.00	96.661
712.00	96.215
713.00	95.988
714.00	95.815
715.00	95.929
716.00	95.793
717.00	95.646
718.00	96.389
719.00	96.768
720.00	96.584
721.00	96.326
722.00	96.545
723.00	96.567
724.00	96.621
725.00	96.531
726.00	96.961
727.00	96.769
728.00	96.325
729.00	96.151
730.00	96.019
731.00	95.702
732.00	95.869
733.00	95.904
734.00	95.657
735.00	95.796
736.00	95.867
737.00	96.474
738.00	96.228
739.00	95.868
740.00	95.839
741.00	95.373
742.00	94.546
743.00	94.022
744.00	94.194
745.00	94.085
746.00	94.088
747.00	93.385
748.00	93.841
749.00	93.824
750.00	93.665
751.00	93.462
752.00	93.444
753.00	93.052
754.00	92.502
755.00	91.484
756.00	91.719
757.00	91.594
758.00	90.848
759.00	90.417
760.00	90.701
761.00	89.776
762.00	89.570
763.00	89.760
764.00	89.434
765.00	88.712
766.00	88.057
767.00	87.408
768.00	87.505
769.00	87.693
770.00	88.194
771.00	88.588
772.00	88.446
773.00	87.476
774.00	86.965
775.00	86.117
776.00	85.808
777.00	85.803
778.00	86.031
779.00	85.735
780.00	85.320
781.00	84.562
782.00	83.744
783.00	82.610
784.00	82.011
785.00	81.658
786.00	81.085
787.00	81.049
788.00	80.925
789.00	80.841
790.00	80.788
791.00	80.645
792.00	79.829
793.00	79.133
794.00	77.860
795.00	77.333
796.00	76.102
797.00	75.477
798.00	74.771
799.00	74.728
800.00	73.829
801.00	73.784
802.00	73.271
803.00	72.806
804.00	72.204
805.00	71.108
806.00	70.264
807.00	69.966
808.00	70.047
809.00	69.336
810.00	69.561
811.00	69.507
812.00	68.868
813.00	67.677
814.00	67.242
815.00	66.159
816.00	65.600
817.00	65.102
818.00	64.877
819.00	64.512
820.00	64.505
821.00	64.142
822.00	63.748
823.00	63.198
824.00	62.608
825.00	61.442
826.00	60.836
827.00	60.896
828.00	60.830
829.00	60.172
830.00	60.467
831.00	60.392
832.00	59.893
833.00	59.247
834.00	59.126
835.00	58.762
836.00	58.512
837.00	58.584
838.00	59.031
839.00	59.439
840.00	59.490
841.00	60.006
842.00	59.626
843.00	59.274
844.00	58.682
845.00	58.710
846.00	58.212
847.00	58.028
848.00	58.192
849.00	59.065
850.00	59.035
851.00	59.054
852.00	59.181
853.00	59.306
854.00	59.347
855.00	59.991
856.00	60.322
857.00	60.961
858.00	61.202
859.00	61.301
860.00	62.011
861.00	62.859
862.00	63.192
863.00	63.467
864.00	64.026
865.00	64.036
866.00	64.368
867.00	65.059
868.00	65.758
869.00	66.382
870.00	66.635
871.00	66.477
872.00	66.042
873.00	66.243
874.00	66.234
875.00	66.856
876.00	67.385
877.00	68.341
878.00	68.677
879.00	68.994
880.00	68.474
881.00	68.928
882.00	68.828
883.00	69.203
884.00	69.920
885.00	70.476
886.00	71.038
887.00	71.833
888.00	72.011
889.00	71.988
890.00	73.478
891.00	73.495
892.00	73.465
893.00	74.709
894.00	75.463
895.00	74.964
896.00	75.066
897.00	75.599
898.00	75.540
899.00	76.406
900.00	76.239
901.00	75.949
902.00	76.830
903.00	76.699
904.00	75.920
905.00	76.434
906.00	77.993
907.00	77.610
908.00	78.465
909.00	78.616
910.00	79.093
911.00	78.077
912.00	77.791
913.00	78.178
914.00	79.672
915.00	79.881
916.00	80.784
917.00	81.353
918.00	80.434
919.00	79.976
920.00	80.468
921.00	81.233
922.00	81.823
923.00	81.891
924.00	81.886
925.00	81.728
926.00	81.301
927.00	80.755
928.00	81.784
929.00	81.698
930.00	82.027
931.00	82.025
932.00	82.723
933.00	82.709
934.00	82.790
935.00	82.456
936.00	82.099
937.00	83.253
938.00	84.560
939.00	84.228
940.00	84.128
941.00	85.877
942.00	85.092
943.00	83.447
944.00	84.946
945.00	87.053
946.00	86.110
947.00	87.764
948.00	87.870
949.00	85.966
950.00	84.181
951.00	83.570
952.00	82.312
953.00	83.967
954.00	85.093
955.00	85.520
956.00	86.608
957.00	84.116
958.00	81.872
959.00	80.310
960.00	81.046
961.00	81.122
962.00	84.414
963.00	85.115
964.00	89.573
965.00	87.228
966.00	86.301
967.00	84.135
968.00	82.410
969.00	78.574
970.00	80.223
971.00	81.771
972.00	82.341
973.00	87.488
974.00	89.275
975.00	89.316
976.00	84.311
977.00	85.568
978.00	84.381
979.00	83.338
980.00	80.422
981.00	84.828
982.00	82.406
983.00	79.433
984.00	81.714
985.00	85.944
986.00	80.776
987.00	79.979
988.00	79.603
989.00	74.848
990.00	70.183
991.00	70.519
992.00	66.839
993.00	67.009
994.00	70.933
995.00	73.136
996.00	73.373
997.00	74.679
998.00	74.853
999.00	62.004
1000.00	79.467
>>>>>End Processed Spectral Data<<<<<
