SpectraSuite Data File
++++++++++++++++++++++++++++++++++++
Date: Thu Oct 10 10:44:12 CEST 2019
User: admin
Dark Spectrum Present: Yes
Reference Spectrum Present: Yes
Number of Sampled Component Spectra: 1
Spectrometers: USB2G49547
Integration Time (usec): 100000 (USB2G49547)
Spectra Averaged: 10 (USB2G49547)
Boxcar Smoothing: 2 (USB2G49547)
Correct for Electrical Dark: No (USB2G49547)
Strobe/Lamp Enabled: No (USB2G49547)
Correct for Detector Non-linearity: No (USB2G49547)
Correct for Stray Light: No (USB2G49547)
Number of Pixels in Processed Spectrum: 651
>>>>>Begin Processed Spectral Data<<<<<
350.00	-54.127
351.00	87.027
352.00	-16.266
353.00	-1.662
354.00	1.255
355.00	51.895
356.00	426.961
357.00	101.497
358.00	-5381.122
359.00	-100.877
360.00	-40.629
361.00	7.721
362.00	-6.997
363.00	-12.303
364.00	20.806
365.00	39.463
366.00	91.260
367.00	107.274
368.00	143.799
369.00	1696.472
370.00	702.312
371.00	325.944
372.00	201.264
373.00	-2077.569
374.00	-126.539
375.00	-41.428
376.00	-8.240
377.00	-72.455
378.00	-145.385
379.00	-148.505
380.00	-166.379
381.00	-115.941
382.00	-42.192
383.00	-67.181
384.00	-120.005
385.00	-27.415
386.00	-86.814
387.00	-49.618
388.00	-6.474
389.00	59.628
390.00	27.449
391.00	30.999
392.00	-6.120
393.00	-44.512
394.00	-49.946
395.00	-12.028
396.00	14.760
397.00	25.420
398.00	50.544
399.00	74.700
400.00	7.255
401.00	-9.180
402.00	-36.943
403.00	-38.946
404.00	-6.634
405.00	-12.118
406.00	7.659
407.00	40.852
408.00	67.013
409.00	61.619
410.00	57.319
411.00	54.846
412.00	55.600
413.00	41.226
414.00	53.215
415.00	65.404
416.00	71.306
417.00	73.509
418.00	79.315
419.00	72.551
420.00	73.912
421.00	70.139
422.00	82.181
423.00	79.407
424.00	87.222
425.00	95.104
426.00	96.968
427.00	87.788
428.00	94.187
429.00	95.683
430.00	86.724
431.00	85.850
432.00	88.326
433.00	84.327
434.00	82.766
435.00	89.875
436.00	89.286
437.00	92.470
438.00	93.723
439.00	97.760
440.00	93.825
441.00	92.083
442.00	91.428
443.00	90.411
444.00	90.563
445.00	92.923
446.00	95.621
447.00	90.511
448.00	90.010
449.00	85.690
450.00	84.579
451.00	84.114
452.00	88.502
453.00	91.236
454.00	92.789
455.00	93.731
456.00	96.560
457.00	95.097
458.00	94.878
459.00	95.167
460.00	95.062
461.00	93.256
462.00	94.010
463.00	93.447
464.00	93.813
465.00	93.658
466.00	94.099
467.00	93.012
468.00	92.423
469.00	91.767
470.00	92.893
471.00	92.144
472.00	94.350
473.00	94.313
474.00	95.852
475.00	95.959
476.00	96.378
477.00	95.500
478.00	95.760
479.00	94.890
480.00	94.362
481.00	94.696
482.00	93.130
483.00	92.593
484.00	92.111
485.00	92.554
486.00	93.175
487.00	94.534
488.00	95.390
489.00	96.202
490.00	95.698
491.00	95.213
492.00	95.230
493.00	94.962
494.00	94.930
495.00	94.625
496.00	94.200
497.00	94.561
498.00	94.568
499.00	93.683
500.00	94.128
501.00	93.909
502.00	93.296
503.00	93.595
504.00	93.653
505.00	93.560
506.00	94.061
507.00	94.186
508.00	93.989
509.00	94.679
510.00	94.580
511.00	94.436
512.00	95.021
513.00	94.927
514.00	94.556
515.00	94.354
516.00	94.264
517.00	94.070
518.00	94.255
519.00	93.972
520.00	94.367
521.00	94.716
522.00	94.395
523.00	94.376
524.00	94.777
525.00	94.915
526.00	94.903
527.00	95.265
528.00	95.262
529.00	95.193
530.00	95.214
531.00	94.986
532.00	94.906
533.00	95.072
534.00	94.945
535.00	94.495
536.00	94.984
537.00	94.811
538.00	94.467
539.00	94.474
540.00	95.066
541.00	94.853
542.00	94.669
543.00	95.015
544.00	95.302
545.00	95.229
546.00	95.460
547.00	95.570
548.00	95.015
549.00	94.944
550.00	94.706
551.00	94.513
552.00	94.692
553.00	95.397
554.00	95.432
555.00	94.954
556.00	95.057
557.00	94.692
558.00	94.395
559.00	94.263
560.00	94.133
561.00	94.006
562.00	94.004
563.00	93.758
564.00	94.017
565.00	94.606
566.00	94.558
567.00	94.727
568.00	95.073
569.00	94.469
570.00	93.829
571.00	93.644
572.00	93.225
573.00	93.022
574.00	93.265
575.00	93.948
576.00	93.946
577.00	93.755
578.00	93.769
579.00	93.464
580.00	92.886
581.00	92.963
582.00	93.240
583.00	93.328
584.00	93.185
585.00	93.449
586.00	93.112
587.00	93.151
588.00	92.823
589.00	93.457
590.00	93.294
591.00	93.458
592.00	93.399
593.00	93.286
594.00	92.779
595.00	93.008
596.00	92.725
597.00	92.587
598.00	93.001
599.00	92.695
600.00	92.258
601.00	92.572
602.00	93.079
603.00	93.045
604.00	93.326
605.00	93.336
606.00	92.905
607.00	92.383
608.00	92.070
609.00	91.959
610.00	91.966
611.00	92.456
612.00	93.125
613.00	93.555
614.00	93.889
615.00	94.047
616.00	94.244
617.00	93.696
618.00	93.012
619.00	92.735
620.00	92.323
621.00	91.612
622.00	91.230
623.00	91.569
624.00	91.487
625.00	91.898
626.00	92.172
627.00	92.494
628.00	92.810
629.00	92.822
630.00	92.606
631.00	92.464
632.00	92.587
633.00	92.289
634.00	92.178
635.00	92.394
636.00	92.591
637.00	92.446
638.00	92.188
639.00	92.289
640.00	91.900
641.00	91.939
642.00	91.999
643.00	92.373
644.00	92.619
645.00	92.773
646.00	92.810
647.00	92.676
648.00	92.359
649.00	92.374
650.00	92.663
651.00	92.718
652.00	92.764
653.00	92.972
654.00	93.282
655.00	93.294
656.00	93.671
657.00	93.798
658.00	94.041
659.00	93.646
660.00	93.625
661.00	93.715
662.00	93.994
663.00	94.065
664.00	94.707
665.00	94.801
666.00	94.723
667.00	94.920
668.00	95.132
669.00	94.807
670.00	95.025
671.00	94.816
672.00	94.418
673.00	94.296
674.00	94.109
675.00	93.808
676.00	94.146
677.00	94.601
678.00	94.708
679.00	94.668
680.00	95.157
681.00	94.904
682.00	95.371
683.00	95.368
684.00	95.514
685.00	95.393
686.00	95.209
687.00	94.390
688.00	94.519
689.00	94.560
690.00	94.729
691.00	94.293
692.00	94.682
693.00	94.543
694.00	94.586
695.00	94.396
696.00	94.879
697.00	94.074
698.00	93.354
699.00	93.318
700.00	93.299
701.00	92.742
702.00	92.986
703.00	93.646
704.00	93.551
705.00	93.884
706.00	94.415
707.00	94.966
708.00	94.530
709.00	94.423
710.00	94.060
711.00	94.141
712.00	93.996
713.00	93.742
714.00	93.860
715.00	93.883
716.00	94.115
717.00	94.161
718.00	95.030
719.00	95.401
720.00	95.316
721.00	95.264
722.00	95.401
723.00	95.615
724.00	96.014
725.00	96.172
726.00	96.392
727.00	96.490
728.00	96.452
729.00	96.522
730.00	96.879
731.00	97.205
732.00	97.808
733.00	98.203
734.00	98.299
735.00	98.872
736.00	99.401
737.00	100.108
738.00	100.024
739.00	100.077
740.00	100.136
741.00	99.659
742.00	99.186
743.00	99.133
744.00	99.428
745.00	99.433
746.00	99.971
747.00	99.290
748.00	99.730
749.00	99.801
750.00	99.744
751.00	99.330
752.00	99.320
753.00	98.908
754.00	98.228
755.00	97.250
756.00	97.383
757.00	97.530
758.00	97.009
759.00	96.860
760.00	97.265
761.00	96.426
762.00	96.374
763.00	96.669
764.00	96.650
765.00	96.138
766.00	96.119
767.00	95.523
768.00	95.701
769.00	95.657
770.00	96.313
771.00	96.290
772.00	96.131
773.00	95.342
774.00	95.175
775.00	94.429
776.00	94.206
777.00	94.214
778.00	94.274
779.00	93.645
780.00	93.279
781.00	92.686
782.00	92.033
783.00	91.090
784.00	90.750
785.00	90.312
786.00	90.073
787.00	90.394
788.00	90.579
789.00	90.514
790.00	90.601
791.00	90.366
792.00	89.301
793.00	88.246
794.00	87.287
795.00	86.672
796.00	85.484
797.00	84.902
798.00	84.382
799.00	84.257
800.00	83.357
801.00	83.454
802.00	82.800
803.00	82.215
804.00	81.474
805.00	80.621
806.00	79.603
807.00	79.288
808.00	79.431
809.00	78.776
810.00	78.531
811.00	78.193
812.00	77.214
813.00	75.611
814.00	74.981
815.00	74.319
816.00	73.446
817.00	72.899
818.00	72.405
819.00	71.559
820.00	71.012
821.00	70.543
822.00	69.840
823.00	69.053
824.00	68.187
825.00	66.629
826.00	66.007
827.00	65.466
828.00	65.217
829.00	63.990
830.00	63.386
831.00	62.410
832.00	61.965
833.00	60.917
834.00	60.590
835.00	60.450
836.00	59.710
837.00	59.108
838.00	59.163
839.00	59.238
840.00	58.676
841.00	59.125
842.00	58.614
843.00	58.052
844.00	57.362
845.00	57.002
846.00	56.096
847.00	55.747
848.00	55.436
849.00	55.597
850.00	55.922
851.00	55.472
852.00	55.038
853.00	54.764
854.00	54.700
855.00	54.219
856.00	54.498
857.00	55.194
858.00	55.559
859.00	55.499
860.00	55.565
861.00	56.210
862.00	56.175
863.00	56.557
864.00	57.065
865.00	57.620
866.00	57.845
867.00	58.621
868.00	58.667
869.00	58.971
870.00	58.890
871.00	58.914
872.00	58.635
873.00	58.982
874.00	59.496
875.00	60.683
876.00	61.360
877.00	62.092
878.00	62.621
879.00	62.682
880.00	62.476
881.00	62.469
882.00	62.988
883.00	63.450
884.00	64.771
885.00	65.878
886.00	66.613
887.00	67.054
888.00	67.496
889.00	67.747
890.00	68.392
891.00	69.294
892.00	69.630
893.00	70.129
894.00	69.936
895.00	70.261
896.00	69.730
897.00	70.502
898.00	71.272
899.00	72.514
900.00	72.324
901.00	73.709
902.00	73.866
903.00	74.007
904.00	74.521
905.00	75.369
906.00	75.706
907.00	76.365
908.00	77.328
909.00	76.327
910.00	76.537
911.00	76.426
912.00	76.266
913.00	77.102
914.00	78.693
915.00	79.725
916.00	80.352
917.00	81.055
918.00	80.260
919.00	81.152
920.00	80.810
921.00	81.923
922.00	82.646
923.00	82.913
924.00	82.313
925.00	83.109
926.00	82.178
927.00	81.879
928.00	82.550
929.00	82.975
930.00	82.623
931.00	83.048
932.00	83.908
933.00	85.593
934.00	85.639
935.00	86.715
936.00	85.694
937.00	87.018
938.00	86.124
939.00	85.609
940.00	85.123
941.00	87.465
942.00	86.690
943.00	86.050
944.00	87.999
945.00	88.975
946.00	88.834
947.00	89.174
948.00	90.680
949.00	89.544
950.00	88.074
951.00	88.505
952.00	88.608
953.00	88.439
954.00	89.399
955.00	91.411
956.00	91.367
957.00	90.956
958.00	91.225
959.00	89.016
960.00	89.508
961.00	89.055
962.00	88.438
963.00	88.141
964.00	94.541
965.00	92.960
966.00	94.620
967.00	93.741
968.00	89.183
969.00	84.208
970.00	85.390
971.00	85.891
972.00	88.650
973.00	94.775
974.00	97.938
975.00	97.992
976.00	94.354
977.00	92.572
978.00	92.919
979.00	91.773
980.00	88.905
981.00	92.849
982.00	93.216
983.00	89.198
984.00	89.458
985.00	92.328
986.00	92.564
987.00	95.335
988.00	96.348
989.00	94.108
990.00	94.439
991.00	97.270
992.00	92.508
993.00	95.614
994.00	93.667
995.00	92.562
996.00	84.889
997.00	86.892
998.00	77.441
999.00	91.236
1000.00	48.847
>>>>>End Processed Spectral Data<<<<<
