SpectraSuite Data File
++++++++++++++++++++++++++++++++++++
Date: Thu Oct 10 11:11:58 CEST 2019
User: admin
Dark Spectrum Present: Yes
Reference Spectrum Present: Yes
Number of Sampled Component Spectra: 1
Spectrometers: USB2G49547
Integration Time (usec): 100000 (USB2G49547)
Spectra Averaged: 10 (USB2G49547)
Boxcar Smoothing: 2 (USB2G49547)
Correct for Electrical Dark: No (USB2G49547)
Strobe/Lamp Enabled: No (USB2G49547)
Correct for Detector Non-linearity: No (USB2G49547)
Correct for Stray Light: No (USB2G49547)
Number of Pixels in Processed Spectrum: 651
>>>>>Begin Processed Spectral Data<<<<<
350.00	-217.891
351.00	-101.814
352.00	-116.856
353.00	-234.388
354.00	-173.743
355.00	-106.020
356.00	-210.538
357.00	-152.933
358.00	-68.545
359.00	-140.740
360.00	-137.617
361.00	-155.286
362.00	-311.889
363.00	-325.124
364.00	-190.511
365.00	-130.121
366.00	-136.352
367.00	-123.535
368.00	-503.936
369.00	-207.459
370.00	-122.877
371.00	-44.246
372.00	5.626
373.00	12.495
374.00	2.048
375.00	-17.385
376.00	17.013
377.00	-4.704
378.00	-32.468
379.00	-153.431
380.00	-433.539
381.00	-172.389
382.00	1485.881
383.00	9.210
384.00	61.834
385.00	50.408
386.00	-15.290
387.00	1.161
388.00	-105.068
389.00	-153.435
390.00	-280.212
391.00	-172.334
392.00	-125.164
393.00	-36.808
394.00	-1.494
395.00	64.274
396.00	64.004
397.00	49.245
398.00	34.839
399.00	31.352
400.00	7.417
401.00	-10.352
402.00	-0.624
403.00	24.862
404.00	33.897
405.00	54.803
406.00	40.307
407.00	28.310
408.00	15.893
409.00	28.834
410.00	19.610
411.00	36.157
412.00	43.789
413.00	47.858
414.00	49.809
415.00	56.769
416.00	65.711
417.00	64.447
418.00	65.067
419.00	58.059
420.00	52.467
421.00	55.551
422.00	53.604
423.00	49.271
424.00	47.983
425.00	49.916
426.00	36.907
427.00	50.275
428.00	55.404
429.00	49.973
430.00	50.361
431.00	68.028
432.00	68.606
433.00	75.236
434.00	83.677
435.00	89.407
436.00	88.502
437.00	86.142
438.00	83.608
439.00	86.118
440.00	89.437
441.00	84.588
442.00	88.165
443.00	88.965
444.00	88.547
445.00	88.038
446.00	89.298
447.00	89.493
448.00	90.975
449.00	92.431
450.00	91.752
451.00	92.933
452.00	89.379
453.00	90.360
454.00	88.143
455.00	87.720
456.00	88.958
457.00	90.267
458.00	88.607
459.00	92.732
460.00	93.578
461.00	91.872
462.00	91.391
463.00	91.441
464.00	90.321
465.00	89.560
466.00	88.692
467.00	89.880
468.00	92.863
469.00	91.788
470.00	91.445
471.00	93.263
472.00	93.961
473.00	92.544
474.00	93.349
475.00	93.975
476.00	92.936
477.00	92.046
478.00	90.993
479.00	90.700
480.00	90.921
481.00	92.219
482.00	93.327
483.00	93.927
484.00	94.054
485.00	94.871
486.00	93.952
487.00	92.832
488.00	92.848
489.00	93.731
490.00	92.976
491.00	93.887
492.00	94.513
493.00	95.176
494.00	94.486
495.00	95.416
496.00	95.535
497.00	96.354
498.00	95.859
499.00	96.094
500.00	96.514
501.00	96.351
502.00	96.436
503.00	96.498
504.00	96.512
505.00	96.314
506.00	95.954
507.00	95.088
508.00	94.941
509.00	95.108
510.00	94.573
511.00	94.714
512.00	94.799
513.00	95.209
514.00	95.307
515.00	94.953
516.00	94.724
517.00	94.952
518.00	94.804
519.00	94.718
520.00	95.093
521.00	95.567
522.00	95.255
523.00	95.511
524.00	95.183
525.00	95.054
526.00	94.467
527.00	94.244
528.00	93.916
529.00	94.027
530.00	93.772
531.00	93.907
532.00	94.087
533.00	93.983
534.00	93.944
535.00	94.454
536.00	94.402
537.00	94.295
538.00	94.323
539.00	94.188
540.00	94.076
541.00	94.363
542.00	94.593
543.00	94.345
544.00	94.169
545.00	93.888
546.00	93.454
547.00	93.572
548.00	93.814
549.00	94.015
550.00	94.173
551.00	94.331
552.00	94.105
553.00	93.799
554.00	93.754
555.00	93.764
556.00	93.659
557.00	93.675
558.00	93.831
559.00	93.611
560.00	93.702
561.00	93.634
562.00	93.544
563.00	93.515
564.00	93.730
565.00	93.443
566.00	93.501
567.00	93.446
568.00	93.456
569.00	93.457
570.00	93.389
571.00	93.097
572.00	93.127
573.00	93.267
574.00	93.268
575.00	93.232
576.00	93.521
577.00	93.690
578.00	93.611
579.00	93.370
580.00	93.177
581.00	93.113
582.00	93.012
583.00	92.820
584.00	92.906
585.00	92.987
586.00	92.857
587.00	92.760
588.00	92.831
589.00	92.878
590.00	93.108
591.00	93.320
592.00	93.485
593.00	93.681
594.00	93.684
595.00	93.707
596.00	93.788
597.00	93.719
598.00	93.573
599.00	93.733
600.00	93.808
601.00	93.601
602.00	93.593
603.00	93.567
604.00	93.422
605.00	93.228
606.00	93.165
607.00	92.964
608.00	92.859
609.00	92.790
610.00	92.869
611.00	92.936
612.00	93.018
613.00	92.980
614.00	92.973
615.00	92.942
616.00	92.776
617.00	92.755
618.00	92.927
619.00	92.918
620.00	92.758
621.00	92.750
622.00	92.641
623.00	92.411
624.00	92.205
625.00	92.142
626.00	92.078
627.00	92.093
628.00	92.085
629.00	92.259
630.00	92.312
631.00	92.390
632.00	92.448
633.00	92.321
634.00	92.144
635.00	92.157
636.00	92.133
637.00	92.029
638.00	92.054
639.00	92.170
640.00	92.071
641.00	92.061
642.00	92.086
643.00	92.220
644.00	92.217
645.00	92.329
646.00	92.519
647.00	92.556
648.00	92.622
649.00	92.820
650.00	92.927
651.00	92.949
652.00	92.987
653.00	92.942
654.00	92.810
655.00	92.794
656.00	92.814
657.00	92.874
658.00	93.017
659.00	93.025
660.00	92.978
661.00	92.879
662.00	92.916
663.00	92.871
664.00	92.912
665.00	93.026
666.00	92.973
667.00	92.997
668.00	93.046
669.00	93.060
670.00	93.042
671.00	93.046
672.00	92.930
673.00	92.762
674.00	92.633
675.00	92.420
676.00	92.207
677.00	92.096
678.00	91.969
679.00	91.967
680.00	91.907
681.00	91.987
682.00	91.823
683.00	91.783
684.00	91.525
685.00	91.248
686.00	91.041
687.00	90.890
688.00	90.714
689.00	90.701
690.00	90.637
691.00	90.479
692.00	90.325
693.00	90.058
694.00	89.657
695.00	89.349
696.00	89.054
697.00	88.858
698.00	88.680
699.00	88.482
700.00	88.356
701.00	88.019
702.00	87.666
703.00	87.263
704.00	86.861
705.00	86.369
706.00	86.188
707.00	85.885
708.00	85.532
709.00	85.068
710.00	84.605
711.00	83.944
712.00	83.286
713.00	82.816
714.00	82.517
715.00	82.191
716.00	81.795
717.00	81.517
718.00	80.995
719.00	80.363
720.00	79.773
721.00	79.138
722.00	78.457
723.00	77.737
724.00	77.164
725.00	76.546
726.00	76.116
727.00	75.591
728.00	75.022
729.00	74.335
730.00	73.639
731.00	72.800
732.00	72.147
733.00	71.604
734.00	70.817
735.00	70.208
736.00	69.666
737.00	69.103
738.00	68.546
739.00	68.194
740.00	67.581
741.00	67.022
742.00	66.308
743.00	65.749
744.00	65.169
745.00	64.569
746.00	63.913
747.00	63.502
748.00	62.710
749.00	62.298
750.00	61.983
751.00	61.696
752.00	61.317
753.00	60.938
754.00	60.602
755.00	60.338
756.00	59.888
757.00	59.573
758.00	59.581
759.00	59.372
760.00	59.263
761.00	59.332
762.00	59.333
763.00	59.309
764.00	59.404
765.00	59.452
766.00	59.571
767.00	59.747
768.00	60.002
769.00	60.033
770.00	60.110
771.00	60.263
772.00	60.348
773.00	60.431
774.00	60.711
775.00	61.090
776.00	61.324
777.00	61.478
778.00	61.832
779.00	62.262
780.00	62.412
781.00	62.708
782.00	63.040
783.00	63.464
784.00	63.762
785.00	64.119
786.00	64.486
787.00	64.956
788.00	65.326
789.00	65.592
790.00	66.186
791.00	66.647
792.00	67.049
793.00	67.390
794.00	67.976
795.00	68.266
796.00	68.740
797.00	69.267
798.00	69.706
799.00	70.016
800.00	70.394
801.00	70.683
802.00	71.238
803.00	71.670
804.00	72.148
805.00	72.630
806.00	73.192
807.00	73.275
808.00	73.494
809.00	73.766
810.00	74.111
811.00	74.533
812.00	75.126
813.00	75.577
814.00	76.094
815.00	76.406
816.00	76.557
817.00	76.851
818.00	77.051
819.00	77.103
820.00	77.552
821.00	77.984
822.00	78.168
823.00	78.693
824.00	79.081
825.00	79.086
826.00	79.499
827.00	79.887
828.00	80.068
829.00	80.313
830.00	80.716
831.00	80.978
832.00	80.886
833.00	81.130
834.00	81.528
835.00	81.795
836.00	81.703
837.00	82.010
838.00	82.372
839.00	82.616
840.00	82.832
841.00	83.122
842.00	83.519
843.00	83.692
844.00	83.636
845.00	83.753
846.00	83.924
847.00	84.013
848.00	84.137
849.00	84.168
850.00	84.435
851.00	84.478
852.00	84.710
853.00	84.830
854.00	85.431
855.00	85.356
856.00	85.541
857.00	85.840
858.00	85.658
859.00	85.277
860.00	85.602
861.00	85.677
862.00	85.527
863.00	85.861
864.00	86.434
865.00	86.556
866.00	86.701
867.00	86.699
868.00	87.132
869.00	87.123
870.00	87.031
871.00	87.245
872.00	87.483
873.00	87.052
874.00	86.958
875.00	87.138
876.00	87.023
877.00	87.072
878.00	87.468
879.00	87.828
880.00	87.912
881.00	88.017
882.00	88.314
883.00	88.142
884.00	87.919
885.00	87.740
886.00	87.844
887.00	87.546
888.00	87.731
889.00	87.631
890.00	87.901
891.00	88.085
892.00	88.528
893.00	88.686
894.00	89.135
895.00	88.961
896.00	89.117
897.00	88.923
898.00	88.648
899.00	88.343
900.00	88.451
901.00	88.298
902.00	88.127
903.00	88.329
904.00	88.550
905.00	88.654
906.00	88.597
907.00	88.726
908.00	88.785
909.00	88.679
910.00	88.680
911.00	88.767
912.00	89.070
913.00	88.875
914.00	88.927
915.00	88.802
916.00	88.316
917.00	88.073
918.00	88.281
919.00	88.450
920.00	88.515
921.00	89.062
922.00	89.023
923.00	88.868
924.00	88.787
925.00	88.833
926.00	88.436
927.00	88.684
928.00	88.799
929.00	88.616
930.00	88.703
931.00	88.436
932.00	88.369
933.00	88.334
934.00	88.307
935.00	88.129
936.00	88.429
937.00	87.723
938.00	87.310
939.00	87.468
940.00	87.636
941.00	87.799
942.00	87.847
943.00	88.487
944.00	88.501
945.00	88.635
946.00	89.018
947.00	89.238
948.00	88.804
949.00	88.603
950.00	88.341
951.00	87.896
952.00	88.232
953.00	88.720
954.00	89.067
955.00	88.973
956.00	89.206
957.00	89.403
958.00	88.456
959.00	88.294
960.00	88.163
961.00	88.076
962.00	87.751
963.00	87.758
964.00	87.841
965.00	87.368
966.00	87.555
967.00	87.911
968.00	88.235
969.00	87.512
970.00	88.697
971.00	88.608
972.00	88.354
973.00	88.300
974.00	87.851
975.00	87.847
976.00	86.134
977.00	85.384
978.00	85.520
979.00	86.979
980.00	86.760
981.00	87.980
982.00	88.709
983.00	89.563
984.00	89.815
985.00	88.012
986.00	88.760
987.00	88.609
988.00	87.488
989.00	86.228
990.00	85.605
991.00	83.418
992.00	81.244
993.00	81.622
994.00	80.935
995.00	83.494
996.00	82.556
997.00	83.201
998.00	83.043
999.00	81.077
1000.00	86.925
>>>>>End Processed Spectral Data<<<<<
