SpectraSuite Data File
++++++++++++++++++++++++++++++++++++
Date: Thu Oct 10 10:42:26 CEST 2019
User: admin
Dark Spectrum Present: Yes
Reference Spectrum Present: Yes
Number of Sampled Component Spectra: 1
Spectrometers: USB2G49547
Integration Time (usec): 100000 (USB2G49547)
Spectra Averaged: 10 (USB2G49547)
Boxcar Smoothing: 2 (USB2G49547)
Correct for Electrical Dark: No (USB2G49547)
Strobe/Lamp Enabled: No (USB2G49547)
Correct for Detector Non-linearity: No (USB2G49547)
Correct for Stray Light: No (USB2G49547)
Number of Pixels in Processed Spectrum: 651
>>>>>Begin Processed Spectral Data<<<<<
350.00	-87.168
351.00	228.702
352.00	93.834
353.00	22.333
354.00	-19.848
355.00	-9.700
356.00	-1011.540
357.00	-151.496
358.00	62623.540
359.00	-349.302
360.00	-89.436
361.00	-15.163
362.00	-16.565
363.00	-25.377
364.00	4.989
365.00	-18.388
366.00	-22.476
367.00	6.927
368.00	14.180
369.00	-1394.487
370.00	3885.154
371.00	527.395
372.00	333.087
373.00	-3025.761
374.00	-225.829
375.00	-200.429
376.00	-86.892
377.00	-144.247
378.00	-323.317
379.00	-229.460
380.00	-183.488
381.00	-94.685
382.00	-47.859
383.00	-37.947
384.00	-157.242
385.00	-74.977
386.00	-192.624
387.00	-90.430
388.00	-58.111
389.00	19.794
390.00	50.304
391.00	60.082
392.00	17.712
393.00	23.015
394.00	27.770
395.00	19.457
396.00	20.958
397.00	37.435
398.00	19.866
399.00	-115.728
400.00	-4.636
401.00	23.979
402.00	26.856
403.00	38.727
404.00	46.013
405.00	47.391
406.00	45.775
407.00	46.314
408.00	54.742
409.00	65.831
410.00	59.072
411.00	57.539
412.00	43.296
413.00	45.696
414.00	46.419
415.00	55.013
416.00	59.734
417.00	85.024
418.00	71.271
419.00	78.060
420.00	77.353
421.00	73.279
422.00	74.681
423.00	82.913
424.00	82.411
425.00	93.361
426.00	96.339
427.00	89.518
428.00	91.422
429.00	91.075
430.00	85.347
431.00	87.263
432.00	86.114
433.00	84.364
434.00	81.740
435.00	84.789
436.00	84.056
437.00	88.062
438.00	87.851
439.00	91.147
440.00	88.895
441.00	89.227
442.00	87.495
443.00	84.722
444.00	86.170
445.00	87.121
446.00	87.760
447.00	88.854
448.00	90.158
449.00	88.381
450.00	86.164
451.00	85.266
452.00	87.826
453.00	90.625
454.00	91.165
455.00	94.877
456.00	97.166
457.00	96.914
458.00	94.268
459.00	93.034
460.00	92.474
461.00	91.638
462.00	89.604
463.00	90.837
464.00	90.935
465.00	91.202
466.00	91.655
467.00	91.637
468.00	91.612
469.00	91.778
470.00	91.530
471.00	90.893
472.00	93.198
473.00	93.252
474.00	93.867
475.00	94.071
476.00	94.433
477.00	92.890
478.00	93.724
479.00	93.874
480.00	93.432
481.00	93.507
482.00	92.762
483.00	91.318
484.00	90.989
485.00	91.404
486.00	91.701
487.00	93.111
488.00	94.032
489.00	95.226
490.00	94.795
491.00	95.055
492.00	94.658
493.00	93.924
494.00	93.556
495.00	93.702
496.00	93.571
497.00	94.080
498.00	95.203
499.00	94.283
500.00	94.620
501.00	94.227
502.00	93.547
503.00	92.706
504.00	92.446
505.00	92.179
506.00	92.410
507.00	92.357
508.00	93.247
509.00	94.078
510.00	94.517
511.00	94.832
512.00	95.325
513.00	94.727
514.00	94.911
515.00	94.018
516.00	93.600
517.00	93.495
518.00	93.421
519.00	92.950
520.00	93.458
521.00	93.418
522.00	92.967
523.00	93.115
524.00	93.532
525.00	93.620
526.00	94.080
527.00	94.092
528.00	94.009
529.00	93.705
530.00	94.058
531.00	93.875
532.00	94.307
533.00	94.728
534.00	94.917
535.00	94.353
536.00	94.631
537.00	94.546
538.00	94.424
539.00	94.095
540.00	94.762
541.00	94.526
542.00	94.386
543.00	94.305
544.00	94.572
545.00	94.570
546.00	95.107
547.00	95.069
548.00	95.123
549.00	94.756
550.00	94.380
551.00	93.984
552.00	94.256
553.00	94.441
554.00	94.680
555.00	94.511
556.00	94.835
557.00	94.675
558.00	94.515
559.00	94.761
560.00	94.447
561.00	93.999
562.00	93.924
563.00	93.782
564.00	93.958
565.00	94.699
566.00	94.908
567.00	95.295
568.00	95.552
569.00	95.200
570.00	94.646
571.00	94.735
572.00	94.602
573.00	94.848
574.00	95.048
575.00	95.702
576.00	95.636
577.00	95.193
578.00	95.393
579.00	95.083
580.00	94.506
581.00	94.696
582.00	95.249
583.00	95.108
584.00	95.258
585.00	95.777
586.00	95.366
587.00	95.097
588.00	94.909
589.00	95.230
590.00	94.879
591.00	95.099
592.00	95.254
593.00	94.994
594.00	94.752
595.00	95.224
596.00	95.167
597.00	95.121
598.00	95.851
599.00	95.650
600.00	95.384
601.00	95.595
602.00	96.078
603.00	95.809
604.00	96.084
605.00	96.049
606.00	95.735
607.00	95.208
608.00	95.055
609.00	95.312
610.00	95.456
611.00	96.293
612.00	97.271
613.00	98.088
614.00	98.453
615.00	98.836
616.00	98.975
617.00	98.786
618.00	98.351
619.00	98.191
620.00	97.840
621.00	97.364
622.00	96.844
623.00	97.123
624.00	97.018
625.00	97.442
626.00	97.910
627.00	98.458
628.00	98.864
629.00	99.005
630.00	98.825
631.00	98.458
632.00	98.455
633.00	98.057
634.00	97.952
635.00	98.225
636.00	98.409
637.00	98.361
638.00	98.042
639.00	98.145
640.00	97.907
641.00	98.082
642.00	98.237
643.00	98.723
644.00	98.649
645.00	98.523
646.00	98.409
647.00	97.989
648.00	97.498
649.00	97.604
650.00	97.704
651.00	97.664
652.00	97.692
653.00	97.705
654.00	98.132
655.00	98.342
656.00	98.659
657.00	98.798
658.00	99.165
659.00	98.620
660.00	98.330
661.00	98.238
662.00	98.166
663.00	98.129
664.00	98.421
665.00	98.490
666.00	98.237
667.00	98.370
668.00	98.230
669.00	97.882
670.00	97.872
671.00	97.777
672.00	97.093
673.00	96.941
674.00	96.698
675.00	96.108
676.00	96.036
677.00	96.595
678.00	96.739
679.00	96.735
680.00	97.683
681.00	97.572
682.00	97.936
683.00	97.919
684.00	98.013
685.00	97.638
686.00	97.341
687.00	96.625
688.00	96.803
689.00	96.670
690.00	96.768
691.00	96.679
692.00	97.028
693.00	96.727
694.00	96.810
695.00	96.756
696.00	97.131
697.00	96.600
698.00	96.070
699.00	96.150
700.00	96.073
701.00	95.269
702.00	95.271
703.00	95.857
704.00	95.901
705.00	96.139
706.00	96.527
707.00	97.191
708.00	96.525
709.00	96.168
710.00	95.488
711.00	95.965
712.00	95.308
713.00	94.870
714.00	94.658
715.00	94.893
716.00	94.444
717.00	94.038
718.00	94.729
719.00	94.841
720.00	94.414
721.00	94.139
722.00	94.229
723.00	94.070
724.00	94.182
725.00	93.855
726.00	94.095
727.00	93.859
728.00	93.461
729.00	92.990
730.00	93.052
731.00	92.739
732.00	92.854
733.00	92.811
734.00	92.562
735.00	92.507
736.00	92.276
737.00	92.765
738.00	92.358
739.00	91.945
740.00	91.731
741.00	91.081
742.00	90.114
743.00	89.452
744.00	89.609
745.00	89.152
746.00	89.133
747.00	88.457
748.00	88.850
749.00	88.394
750.00	88.195
751.00	87.819
752.00	87.612
753.00	86.976
754.00	86.469
755.00	85.723
756.00	85.897
757.00	85.680
758.00	84.914
759.00	84.427
760.00	84.401
761.00	83.336
762.00	82.925
763.00	83.018
764.00	82.724
765.00	81.797
766.00	81.323
767.00	80.609
768.00	80.524
769.00	80.443
770.00	80.912
771.00	80.994
772.00	80.781
773.00	79.863
774.00	79.284
775.00	78.254
776.00	77.898
777.00	77.817
778.00	78.008
779.00	77.720
780.00	77.578
781.00	76.972
782.00	76.382
783.00	75.424
784.00	74.692
785.00	74.154
786.00	73.754
787.00	73.643
788.00	73.731
789.00	73.796
790.00	73.874
791.00	73.632
792.00	72.765
793.00	71.840
794.00	70.895
795.00	70.596
796.00	69.803
797.00	69.415
798.00	69.038
799.00	69.079
800.00	68.322
801.00	68.128
802.00	67.867
803.00	67.788
804.00	67.453
805.00	66.842
806.00	66.437
807.00	66.570
808.00	66.699
809.00	66.591
810.00	67.182
811.00	67.774
812.00	67.144
813.00	66.583
814.00	66.485
815.00	65.804
816.00	65.634
817.00	65.933
818.00	66.212
819.00	66.105
820.00	66.611
821.00	66.506
822.00	66.389
823.00	66.064
824.00	65.949
825.00	65.150
826.00	65.171
827.00	65.848
828.00	66.267
829.00	66.223
830.00	66.756
831.00	66.855
832.00	66.619
833.00	66.811
834.00	67.318
835.00	67.359
836.00	67.303
837.00	67.834
838.00	67.894
839.00	68.448
840.00	68.929
841.00	69.828
842.00	69.970
843.00	70.517
844.00	70.216
845.00	70.235
846.00	70.222
847.00	70.220
848.00	70.328
849.00	71.118
850.00	71.638
851.00	72.082
852.00	72.161
853.00	72.553
854.00	73.018
855.00	73.434
856.00	73.373
857.00	74.354
858.00	74.522
859.00	74.324
860.00	74.843
861.00	75.759
862.00	75.650
863.00	75.553
864.00	76.225
865.00	76.633
866.00	77.015
867.00	78.153
868.00	78.979
869.00	79.678
870.00	79.379
871.00	79.165
872.00	78.840
873.00	78.674
874.00	78.791
875.00	79.470
876.00	80.191
877.00	80.414
878.00	80.643
879.00	80.711
880.00	80.242
881.00	79.999
882.00	80.130
883.00	80.538
884.00	81.836
885.00	82.634
886.00	83.192
887.00	83.771
888.00	84.217
889.00	83.593
890.00	85.028
891.00	85.452
892.00	85.500
893.00	85.757
894.00	86.380
895.00	86.212
896.00	85.798
897.00	86.516
898.00	87.538
899.00	87.411
900.00	86.644
901.00	87.468
902.00	87.664
903.00	87.638
904.00	88.029
905.00	88.874
906.00	89.297
907.00	89.531
908.00	89.756
909.00	89.465
910.00	88.990
911.00	88.141
912.00	87.773
913.00	88.192
914.00	89.444
915.00	90.932
916.00	91.897
917.00	92.695
918.00	91.997
919.00	92.054
920.00	91.634
921.00	92.193
922.00	92.362
923.00	92.550
924.00	92.609
925.00	93.444
926.00	92.104
927.00	91.395
928.00	92.449
929.00	91.756
930.00	89.853
931.00	91.670
932.00	92.857
933.00	93.043
934.00	93.663
935.00	95.571
936.00	94.897
937.00	96.643
938.00	97.217
939.00	96.352
940.00	95.723
941.00	95.677
942.00	92.781
943.00	91.552
944.00	91.871
945.00	93.244
946.00	93.808
947.00	95.993
948.00	95.669
949.00	95.851
950.00	95.216
951.00	96.038
952.00	94.750
953.00	96.289
954.00	96.008
955.00	93.990
956.00	92.258
957.00	90.858
958.00	90.415
959.00	89.281
960.00	91.869
961.00	94.121
962.00	95.646
963.00	97.451
964.00	101.972
965.00	99.281
966.00	99.302
967.00	97.657
968.00	93.067
969.00	92.020
970.00	93.680
971.00	94.000
972.00	96.009
973.00	98.983
974.00	100.301
975.00	101.782
976.00	95.768
977.00	94.638
978.00	97.357
979.00	95.959
980.00	87.143
981.00	91.429
982.00	90.369
983.00	88.381
984.00	88.114
985.00	96.386
986.00	97.191
987.00	98.281
988.00	97.630
989.00	97.963
990.00	99.399
991.00	101.276
992.00	101.692
993.00	99.911
994.00	94.539
995.00	93.825
996.00	80.576
997.00	80.778
998.00	77.949
999.00	95.028
1000.00	70.169
>>>>>End Processed Spectral Data<<<<<
