SpectraSuite Data File
++++++++++++++++++++++++++++++++++++
Date: Thu Oct 10 10:58:34 CEST 2019
User: admin
Dark Spectrum Present: Yes
Reference Spectrum Present: Yes
Number of Sampled Component Spectra: 1
Spectrometers: USB2G49547
Integration Time (usec): 100000 (USB2G49547)
Spectra Averaged: 10 (USB2G49547)
Boxcar Smoothing: 2 (USB2G49547)
Correct for Electrical Dark: No (USB2G49547)
Strobe/Lamp Enabled: No (USB2G49547)
Correct for Detector Non-linearity: No (USB2G49547)
Correct for Stray Light: No (USB2G49547)
Number of Pixels in Processed Spectrum: 651
>>>>>Begin Processed Spectral Data<<<<<
350.00	-139.796
351.00	32.686
352.00	56.087
353.00	67.562
354.00	62.119
355.00	111.643
356.00	67.209
357.00	36.598
358.00	31.802
359.00	33.585
360.00	37.812
361.00	3.716
362.00	-22.344
363.00	-87.223
364.00	-17.731
365.00	31.711
366.00	-566.218
367.00	118.121
368.00	317.896
369.00	2.818
370.00	-61.453
371.00	-19.572
372.00	-401.942
373.00	-67.976
374.00	28.529
375.00	35.761
376.00	24.523
377.00	49.639
378.00	66.615
379.00	70.578
380.00	112.969
381.00	59.004
382.00	32.085
383.00	-173.727
384.00	-93.840
385.00	-96.081
386.00	5.082
387.00	-0.068
388.00	35.792
389.00	43.816
390.00	49.640
391.00	106.086
392.00	107.416
393.00	102.432
394.00	-813.918
395.00	1065.678
396.00	27.205
397.00	-154.635
398.00	-18.674
399.00	51.260
400.00	20.739
401.00	88.396
402.00	74.498
403.00	112.425
404.00	54.199
405.00	61.862
406.00	18.468
407.00	42.422
408.00	54.394
409.00	54.259
410.00	81.255
411.00	134.042
412.00	107.437
413.00	110.368
414.00	153.346
415.00	142.075
416.00	104.853
417.00	104.357
418.00	98.838
419.00	97.034
420.00	96.431
421.00	100.621
422.00	98.324
423.00	100.490
424.00	92.899
425.00	96.949
426.00	100.284
427.00	106.474
428.00	98.248
429.00	97.041
430.00	94.092
431.00	96.291
432.00	86.498
433.00	85.720
434.00	87.360
435.00	85.544
436.00	89.772
437.00	95.880
438.00	101.750
439.00	101.701
440.00	105.776
441.00	98.576
442.00	98.917
443.00	97.688
444.00	98.415
445.00	97.846
446.00	99.283
447.00	99.130
448.00	101.378
449.00	103.854
450.00	102.891
451.00	101.951
452.00	101.784
453.00	98.681
454.00	97.270
455.00	97.781
456.00	97.386
457.00	98.756
458.00	100.541
459.00	99.034
460.00	100.058
461.00	100.316
462.00	98.748
463.00	98.518
464.00	99.327
465.00	97.810
466.00	98.549
467.00	99.134
468.00	99.420
469.00	98.290
470.00	98.308
471.00	99.429
472.00	101.041
473.00	99.663
474.00	99.932
475.00	101.092
476.00	99.329
477.00	97.266
478.00	99.139
479.00	99.662
480.00	98.477
481.00	97.441
482.00	99.046
483.00	98.802
484.00	98.609
485.00	98.710
486.00	99.837
487.00	98.656
488.00	97.401
489.00	97.435
490.00	97.127
491.00	97.923
492.00	98.449
493.00	99.626
494.00	99.622
495.00	99.901
496.00	98.926
497.00	99.008
498.00	98.629
499.00	98.128
500.00	98.019
501.00	98.215
502.00	97.904
503.00	97.877
504.00	98.075
505.00	98.378
506.00	98.203
507.00	98.539
508.00	97.999
509.00	98.363
510.00	98.293
511.00	98.336
512.00	97.703
513.00	97.826
514.00	97.023
515.00	96.672
516.00	96.488
517.00	96.809
518.00	97.290
519.00	97.284
520.00	97.595
521.00	97.502
522.00	97.236
523.00	96.743
524.00	97.245
525.00	97.107
526.00	97.298
527.00	97.478
528.00	97.555
529.00	97.052
530.00	97.142
531.00	97.478
532.00	97.325
533.00	96.825
534.00	97.102
535.00	96.970
536.00	96.725
537.00	96.461
538.00	96.950
539.00	96.909
540.00	96.915
541.00	96.827
542.00	97.228
543.00	97.137
544.00	96.980
545.00	96.829
546.00	96.884
547.00	96.701
548.00	96.539
549.00	96.568
550.00	96.915
551.00	97.157
552.00	97.205
553.00	97.083
554.00	96.984
555.00	96.703
556.00	96.141
557.00	96.064
558.00	96.258
559.00	96.309
560.00	96.138
561.00	96.225
562.00	95.965
563.00	95.769
564.00	95.886
565.00	95.866
566.00	95.861
567.00	95.709
568.00	95.838
569.00	95.532
570.00	95.547
571.00	95.541
572.00	95.927
573.00	95.964
574.00	95.978
575.00	95.978
576.00	95.679
577.00	95.335
578.00	95.254
579.00	95.174
580.00	94.999
581.00	94.985
582.00	94.924
583.00	94.815
584.00	94.648
585.00	94.691
586.00	94.664
587.00	94.569
588.00	94.307
589.00	94.305
590.00	94.127
591.00	93.974
592.00	93.919
593.00	93.853
594.00	93.834
595.00	93.746
596.00	93.598
597.00	93.430
598.00	93.316
599.00	93.189
600.00	93.064
601.00	93.096
602.00	93.141
603.00	93.096
604.00	92.999
605.00	92.898
606.00	92.681
607.00	92.468
608.00	92.355
609.00	92.303
610.00	92.227
611.00	92.228
612.00	92.130
613.00	92.073
614.00	91.876
615.00	91.696
616.00	91.640
617.00	91.418
618.00	91.178
619.00	91.010
620.00	90.913
621.00	90.550
622.00	90.484
623.00	90.346
624.00	90.111
625.00	89.931
626.00	89.936
627.00	89.743
628.00	89.536
629.00	89.549
630.00	89.408
631.00	89.185
632.00	89.009
633.00	88.914
634.00	88.697
635.00	88.553
636.00	88.424
637.00	88.404
638.00	88.293
639.00	88.192
640.00	88.083
641.00	87.942
642.00	87.803
643.00	87.639
644.00	87.506
645.00	87.403
646.00	87.314
647.00	87.236
648.00	87.264
649.00	87.190
650.00	87.027
651.00	87.004
652.00	86.998
653.00	86.872
654.00	86.704
655.00	86.616
656.00	86.598
657.00	86.401
658.00	86.318
659.00	86.423
660.00	86.579
661.00	86.500
662.00	86.445
663.00	86.424
664.00	86.285
665.00	86.162
666.00	86.124
667.00	86.235
668.00	86.220
669.00	86.395
670.00	86.289
671.00	86.303
672.00	86.223
673.00	86.232
674.00	86.023
675.00	86.140
676.00	86.086
677.00	86.132
678.00	86.197
679.00	86.296
680.00	86.363
681.00	86.343
682.00	86.330
683.00	86.224
684.00	86.261
685.00	86.237
686.00	86.299
687.00	86.352
688.00	86.495
689.00	86.613
690.00	86.746
691.00	86.765
692.00	86.778
693.00	86.797
694.00	86.909
695.00	86.862
696.00	87.015
697.00	87.149
698.00	87.202
699.00	87.124
700.00	87.343
701.00	87.386
702.00	87.489
703.00	87.625
704.00	87.749
705.00	87.753
706.00	87.898
707.00	88.055
708.00	88.219
709.00	88.421
710.00	88.375
711.00	88.423
712.00	88.521
713.00	88.545
714.00	88.476
715.00	88.686
716.00	88.774
717.00	88.673
718.00	88.633
719.00	88.727
720.00	88.806
721.00	88.920
722.00	89.116
723.00	89.540
724.00	89.575
725.00	89.440
726.00	89.587
727.00	89.622
728.00	89.453
729.00	89.443
730.00	89.697
731.00	89.726
732.00	89.868
733.00	89.891
734.00	90.171
735.00	90.230
736.00	90.226
737.00	90.331
738.00	90.475
739.00	90.495
740.00	90.621
741.00	90.931
742.00	90.783
743.00	90.848
744.00	90.765
745.00	90.831
746.00	90.721
747.00	90.752
748.00	90.878
749.00	90.930
750.00	91.075
751.00	91.218
752.00	91.288
753.00	91.121
754.00	91.213
755.00	91.142
756.00	91.138
757.00	91.390
758.00	91.519
759.00	91.419
760.00	91.252
761.00	91.145
762.00	90.814
763.00	90.829
764.00	90.989
765.00	90.915
766.00	90.927
767.00	90.953
768.00	91.024
769.00	90.961
770.00	90.929
771.00	90.825
772.00	90.891
773.00	90.856
774.00	91.058
775.00	91.131
776.00	91.372
777.00	91.407
778.00	91.216
779.00	91.229
780.00	91.634
781.00	91.429
782.00	91.556
783.00	91.688
784.00	91.435
785.00	91.249
786.00	91.577
787.00	91.482
788.00	91.540
789.00	92.120
790.00	92.102
791.00	91.811
792.00	91.951
793.00	91.888
794.00	91.541
795.00	91.633
796.00	91.707
797.00	91.771
798.00	91.773
799.00	91.690
800.00	91.623
801.00	91.828
802.00	91.904
803.00	92.058
804.00	92.220
805.00	92.094
806.00	92.118
807.00	92.016
808.00	91.992
809.00	91.953
810.00	92.028
811.00	92.095
812.00	91.913
813.00	91.964
814.00	92.100
815.00	92.244
816.00	91.909
817.00	92.354
818.00	92.431
819.00	92.270
820.00	92.335
821.00	92.768
822.00	92.983
823.00	92.610
824.00	92.481
825.00	92.421
826.00	92.318
827.00	91.936
828.00	92.525
829.00	93.059
830.00	92.956
831.00	92.606
832.00	92.654
833.00	92.272
834.00	91.909
835.00	92.229
836.00	92.222
837.00	92.025
838.00	92.128
839.00	92.437
840.00	92.562
841.00	92.562
842.00	92.291
843.00	92.403
844.00	92.300
845.00	91.773
846.00	91.794
847.00	92.369
848.00	92.467
849.00	92.327
850.00	92.496
851.00	92.732
852.00	92.153
853.00	91.862
854.00	91.926
855.00	91.926
856.00	91.605
857.00	92.084
858.00	91.745
859.00	91.665
860.00	92.178
861.00	92.129
862.00	92.241
863.00	92.432
864.00	92.490
865.00	92.090
866.00	92.654
867.00	92.347
868.00	92.783
869.00	92.556
870.00	92.381
871.00	92.197
872.00	92.109
873.00	91.894
874.00	91.528
875.00	91.549
876.00	91.311
877.00	91.180
878.00	91.619
879.00	92.416
880.00	92.373
881.00	92.282
882.00	92.941
883.00	92.680
884.00	92.370
885.00	92.014
886.00	92.289
887.00	91.308
888.00	90.035
889.00	89.730
890.00	90.012
891.00	90.521
892.00	91.494
893.00	92.030
894.00	91.827
895.00	91.812
896.00	91.325
897.00	91.058
898.00	91.665
899.00	92.612
900.00	92.901
901.00	92.760
902.00	92.568
903.00	92.848
904.00	92.340
905.00	92.343
906.00	92.345
907.00	92.417
908.00	92.011
909.00	91.992
910.00	92.199
911.00	92.251
912.00	92.229
913.00	92.041
914.00	91.844
915.00	91.405
916.00	92.107
917.00	93.181
918.00	93.530
919.00	93.539
920.00	93.120
921.00	91.911
922.00	90.404
923.00	90.613
924.00	90.564
925.00	90.681
926.00	90.578
927.00	90.572
928.00	90.084
929.00	90.927
930.00	90.841
931.00	91.995
932.00	93.652
933.00	93.517
934.00	93.347
935.00	93.774
936.00	93.493
937.00	91.596
938.00	91.105
939.00	90.294
940.00	90.861
941.00	90.610
942.00	90.558
943.00	91.340
944.00	90.667
945.00	90.251
946.00	89.382
947.00	90.002
948.00	90.559
949.00	91.234
950.00	90.952
951.00	92.095
952.00	90.625
953.00	89.709
954.00	90.862
955.00	90.973
956.00	92.377
957.00	92.775
958.00	93.198
959.00	93.489
960.00	93.816
961.00	87.449
962.00	88.273
963.00	87.031
964.00	85.846
965.00	86.677
966.00	88.499
967.00	89.550
968.00	92.357
969.00	93.424
970.00	93.507
971.00	95.428
972.00	92.380
973.00	89.295
974.00	87.700
975.00	84.759
976.00	87.191
977.00	89.394
978.00	86.278
979.00	87.718
980.00	92.431
981.00	90.887
982.00	91.245
983.00	98.095
984.00	97.468
985.00	94.387
986.00	94.796
987.00	95.023
988.00	94.317
989.00	93.734
990.00	97.648
991.00	90.801
992.00	86.584
993.00	84.529
994.00	84.523
995.00	77.967
996.00	85.993
997.00	90.902
998.00	92.033
999.00	93.999
1000.00	93.220
>>>>>End Processed Spectral Data<<<<<
