SpectraSuite Data File
++++++++++++++++++++++++++++++++++++
Date: Thu Oct 10 10:39:16 CEST 2019
User: admin
Dark Spectrum Present: Yes
Reference Spectrum Present: Yes
Number of Sampled Component Spectra: 1
Spectrometers: USB2G49547
Integration Time (usec): 100000 (USB2G49547)
Spectra Averaged: 10 (USB2G49547)
Boxcar Smoothing: 2 (USB2G49547)
Correct for Electrical Dark: No (USB2G49547)
Strobe/Lamp Enabled: No (USB2G49547)
Correct for Detector Non-linearity: No (USB2G49547)
Correct for Stray Light: No (USB2G49547)
Number of Pixels in Processed Spectrum: 651
>>>>>Begin Processed Spectral Data<<<<<
350.00	1.572
351.00	130.404
352.00	175.743
353.00	95.441
354.00	178.593
355.00	195.681
356.00	2109.311
357.00	316.513
358.00	-59072.922
359.00	144.691
360.00	107.555
361.00	57.755
362.00	63.684
363.00	41.908
364.00	46.005
365.00	98.783
366.00	183.673
367.00	108.594
368.00	183.588
369.00	3939.151
370.00	-4904.443
371.00	-127.346
372.00	16.272
373.00	539.844
374.00	58.168
375.00	7.074
376.00	1.735
377.00	-53.331
378.00	-98.693
379.00	-123.857
380.00	-113.650
381.00	-51.657
382.00	20.520
383.00	-39.548
384.00	-5.580
385.00	21.104
386.00	-33.378
387.00	8.325
388.00	81.734
389.00	99.474
390.00	197.907
391.00	196.075
392.00	153.421
393.00	97.427
394.00	75.367
395.00	35.380
396.00	25.262
397.00	35.040
398.00	23.625
399.00	-18.389
400.00	71.220
401.00	94.159
402.00	81.862
403.00	64.395
404.00	71.452
405.00	48.252
406.00	64.321
407.00	69.320
408.00	75.652
409.00	76.464
410.00	79.386
411.00	61.072
412.00	51.305
413.00	36.320
414.00	35.932
415.00	46.639
416.00	52.600
417.00	56.557
418.00	69.089
419.00	65.736
420.00	61.316
421.00	63.496
422.00	74.103
423.00	67.072
424.00	74.229
425.00	81.157
426.00	80.919
427.00	75.631
428.00	80.492
429.00	79.386
430.00	72.422
431.00	70.505
432.00	70.493
433.00	71.145
434.00	64.770
435.00	64.399
436.00	68.223
437.00	68.345
438.00	69.401
439.00	73.165
440.00	74.858
441.00	75.035
442.00	72.753
443.00	69.658
444.00	73.201
445.00	72.422
446.00	69.418
447.00	70.007
448.00	69.183
449.00	66.372
450.00	67.183
451.00	71.304
452.00	74.079
453.00	76.631
454.00	74.758
455.00	74.102
456.00	71.595
457.00	69.984
458.00	69.343
459.00	70.226
460.00	69.836
461.00	69.090
462.00	70.308
463.00	69.643
464.00	70.462
465.00	72.077
466.00	72.909
467.00	73.149
468.00	72.827
469.00	72.930
470.00	74.635
471.00	75.317
472.00	75.763
473.00	77.389
474.00	77.992
475.00	76.946
476.00	77.137
477.00	76.919
478.00	77.098
479.00	78.271
480.00	77.742
481.00	77.125
482.00	76.685
483.00	76.747
484.00	75.471
485.00	76.577
486.00	77.456
487.00	77.900
488.00	78.692
489.00	79.505
490.00	79.136
491.00	79.220
492.00	79.251
493.00	78.020
494.00	77.845
495.00	78.006
496.00	77.845
497.00	77.735
498.00	78.360
499.00	77.355
500.00	77.133
501.00	77.038
502.00	76.790
503.00	76.791
504.00	77.339
505.00	77.480
506.00	77.534
507.00	77.538
508.00	77.947
509.00	78.655
510.00	78.826
511.00	78.969
512.00	79.518
513.00	78.835
514.00	78.055
515.00	77.790
516.00	78.356
517.00	78.598
518.00	79.160
519.00	79.862
520.00	80.395
521.00	80.114
522.00	80.280
523.00	80.293
524.00	80.250
525.00	80.245
526.00	80.432
527.00	80.396
528.00	80.572
529.00	80.335
530.00	80.367
531.00	80.292
532.00	80.126
533.00	80.037
534.00	80.468
535.00	80.476
536.00	80.327
537.00	80.236
538.00	80.094
539.00	79.928
540.00	80.005
541.00	80.557
542.00	80.881
543.00	81.092
544.00	81.459
545.00	81.496
546.00	81.504
547.00	81.387
548.00	81.885
549.00	81.734
550.00	81.869
551.00	81.939
552.00	82.173
553.00	81.882
554.00	81.991
555.00	81.597
556.00	81.638
557.00	81.627
558.00	81.427
559.00	81.424
560.00	81.851
561.00	81.696
562.00	82.000
563.00	82.117
564.00	82.208
565.00	82.401
566.00	82.598
567.00	82.833
568.00	83.054
569.00	82.950
570.00	82.804
571.00	82.824
572.00	82.593
573.00	82.700
574.00	83.007
575.00	83.321
576.00	83.128
577.00	82.530
578.00	82.455
579.00	82.401
580.00	82.367
581.00	82.499
582.00	83.170
583.00	83.349
584.00	83.221
585.00	83.259
586.00	83.117
587.00	82.937
588.00	82.982
589.00	83.348
590.00	83.130
591.00	83.312
592.00	83.530
593.00	83.511
594.00	83.310
595.00	83.562
596.00	83.821
597.00	83.844
598.00	84.028
599.00	84.113
600.00	84.208
601.00	84.312
602.00	84.484
603.00	84.524
604.00	84.741
605.00	84.484
606.00	84.369
607.00	84.227
608.00	84.160
609.00	84.186
610.00	84.493
611.00	84.719
612.00	84.930
613.00	85.202
614.00	85.316
615.00	85.360
616.00	85.376
617.00	85.518
618.00	85.459
619.00	85.590
620.00	85.703
621.00	85.910
622.00	85.682
623.00	85.868
624.00	85.990
625.00	86.174
626.00	86.143
627.00	86.492
628.00	86.657
629.00	86.828
630.00	86.972
631.00	87.204
632.00	87.551
633.00	87.812
634.00	87.708
635.00	88.100
636.00	88.336
637.00	88.419
638.00	88.222
639.00	88.715
640.00	88.630
641.00	88.729
642.00	88.999
643.00	89.473
644.00	89.409
645.00	89.531
646.00	89.632
647.00	89.546
648.00	89.678
649.00	90.042
650.00	90.093
651.00	90.210
652.00	90.465
653.00	90.433
654.00	90.554
655.00	90.927
656.00	90.978
657.00	90.734
658.00	90.893
659.00	90.871
660.00	90.852
661.00	91.208
662.00	91.504
663.00	91.661
664.00	91.915
665.00	91.970
666.00	91.996
667.00	91.909
668.00	91.885
669.00	91.659
670.00	91.487
671.00	91.575
672.00	91.705
673.00	91.886
674.00	91.864
675.00	92.011
676.00	92.098
677.00	92.247
678.00	92.284
679.00	92.519
680.00	92.900
681.00	92.698
682.00	92.979
683.00	92.849
684.00	92.878
685.00	92.924
686.00	92.917
687.00	92.750
688.00	92.996
689.00	92.967
690.00	92.952
691.00	92.744
692.00	92.844
693.00	92.791
694.00	93.027
695.00	93.198
696.00	93.919
697.00	94.019
698.00	94.105
699.00	93.953
700.00	93.934
701.00	93.864
702.00	94.154
703.00	94.693
704.00	95.090
705.00	95.479
706.00	95.651
707.00	96.098
708.00	96.040
709.00	96.204
710.00	96.267
711.00	96.631
712.00	96.655
713.00	96.604
714.00	96.584
715.00	96.742
716.00	96.306
717.00	95.993
718.00	95.914
719.00	96.072
720.00	95.962
721.00	96.287
722.00	96.319
723.00	96.606
724.00	96.694
725.00	96.696
726.00	96.777
727.00	96.657
728.00	96.485
729.00	96.326
730.00	95.977
731.00	95.854
732.00	95.864
733.00	95.893
734.00	95.814
735.00	96.179
736.00	95.784
737.00	96.165
738.00	96.011
739.00	95.733
740.00	95.488
741.00	95.631
742.00	95.097
743.00	94.537
744.00	94.464
745.00	93.962
746.00	93.887
747.00	93.854
748.00	94.112
749.00	93.890
750.00	93.898
751.00	93.670
752.00	93.397
753.00	93.136
754.00	93.114
755.00	92.975
756.00	92.894
757.00	92.735
758.00	92.537
759.00	91.983
760.00	91.508
761.00	90.865
762.00	90.486
763.00	90.099
764.00	89.986
765.00	89.393
766.00	89.037
767.00	88.595
768.00	88.454
769.00	88.308
770.00	88.486
771.00	88.312
772.00	88.050
773.00	87.564
774.00	86.758
775.00	86.122
776.00	85.726
777.00	85.446
778.00	85.240
779.00	84.928
780.00	84.509
781.00	83.881
782.00	83.186
783.00	82.408
784.00	81.961
785.00	81.305
786.00	80.703
787.00	80.206
788.00	79.653
789.00	78.993
790.00	78.806
791.00	78.510
792.00	77.897
793.00	76.875
794.00	75.976
795.00	75.028
796.00	74.178
797.00	73.473
798.00	73.054
799.00	72.719
800.00	71.975
801.00	71.405
802.00	70.813
803.00	70.330
804.00	69.693
805.00	68.940
806.00	68.204
807.00	67.668
808.00	66.979
809.00	66.146
810.00	65.604
811.00	64.823
812.00	64.108
813.00	63.365
814.00	62.612
815.00	61.898
816.00	61.132
817.00	60.014
818.00	59.391
819.00	58.830
820.00	58.411
821.00	57.882
822.00	57.405
823.00	56.344
824.00	55.794
825.00	54.695
826.00	53.981
827.00	53.235
828.00	52.703
829.00	51.623
830.00	51.263
831.00	50.769
832.00	50.735
833.00	50.731
834.00	50.491
835.00	50.007
836.00	49.460
837.00	49.040
838.00	48.827
839.00	48.950
840.00	48.587
841.00	48.734
842.00	48.290
843.00	47.744
844.00	47.117
845.00	47.113
846.00	46.876
847.00	46.603
848.00	46.527
849.00	46.849
850.00	47.126
851.00	46.778
852.00	47.078
853.00	47.019
854.00	47.034
855.00	46.650
856.00	47.299
857.00	47.540
858.00	48.003
859.00	48.127
860.00	49.200
861.00	49.587
862.00	49.830
863.00	50.158
864.00	50.410
865.00	50.487
866.00	50.834
867.00	51.382
868.00	51.950
869.00	52.585
870.00	52.587
871.00	52.647
872.00	52.931
873.00	53.381
874.00	54.057
875.00	54.564
876.00	55.479
877.00	55.892
878.00	56.105
879.00	56.295
880.00	56.877
881.00	57.402
882.00	58.164
883.00	58.553
884.00	59.281
885.00	59.770
886.00	59.919
887.00	60.167
888.00	60.805
889.00	61.744
890.00	62.976
891.00	63.898
892.00	64.385
893.00	65.801
894.00	66.196
895.00	66.490
896.00	66.614
897.00	67.200
898.00	66.968
899.00	67.536
900.00	67.719
901.00	68.145
902.00	69.268
903.00	69.858
904.00	69.776
905.00	70.025
906.00	71.271
907.00	71.877
908.00	72.981
909.00	73.024
910.00	73.056
911.00	72.878
912.00	72.772
913.00	72.757
914.00	74.232
915.00	75.825
916.00	76.470
917.00	77.410
918.00	76.990
919.00	77.077
920.00	77.200
921.00	78.063
922.00	77.633
923.00	77.924
924.00	78.726
925.00	79.253
926.00	79.184
927.00	79.557
928.00	80.837
929.00	80.070
930.00	80.911
931.00	81.148
932.00	82.083
933.00	82.818
934.00	84.134
935.00	83.741
936.00	83.115
937.00	82.860
938.00	83.027
939.00	82.936
940.00	82.685
941.00	84.342
942.00	84.891
943.00	85.073
944.00	84.797
945.00	85.861
946.00	86.083
947.00	87.518
948.00	87.028
949.00	89.060
950.00	89.295
951.00	90.411
952.00	89.435
953.00	89.766
954.00	88.706
955.00	90.378
956.00	89.584
957.00	88.659
958.00	90.024
959.00	89.484
960.00	87.971
961.00	87.056
962.00	90.084
963.00	88.790
964.00	91.794
965.00	92.821
966.00	93.998
967.00	91.089
968.00	90.015
969.00	87.348
970.00	86.363
971.00	87.265
972.00	87.619
973.00	91.169
974.00	94.558
975.00	100.263
976.00	96.454
977.00	97.699
978.00	100.808
979.00	101.355
980.00	94.828
981.00	98.290
982.00	98.699
983.00	91.219
984.00	89.530
985.00	86.718
986.00	87.685
987.00	87.947
988.00	89.928
989.00	91.104
990.00	95.419
991.00	99.150
992.00	92.484
993.00	94.890
994.00	89.593
995.00	92.221
996.00	84.230
997.00	86.682
998.00	85.910
999.00	77.205
1000.00	87.450
>>>>>End Processed Spectral Data<<<<<
