SpectraSuite Data File
++++++++++++++++++++++++++++++++++++
Date: Thu Oct 10 11:22:41 CEST 2019
User: admin
Dark Spectrum Present: Yes
Reference Spectrum Present: Yes
Number of Sampled Component Spectra: 1
Spectrometers: USB2G49547
Integration Time (usec): 100000 (USB2G49547)
Spectra Averaged: 10 (USB2G49547)
Boxcar Smoothing: 2 (USB2G49547)
Correct for Electrical Dark: No (USB2G49547)
Strobe/Lamp Enabled: No (USB2G49547)
Correct for Detector Non-linearity: No (USB2G49547)
Correct for Stray Light: No (USB2G49547)
Number of Pixels in Processed Spectrum: 651
>>>>>Begin Processed Spectral Data<<<<<
350.00	-181.282
351.00	4.889
352.00	186.420
353.00	91.457
354.00	301.966
355.00	117.289
356.00	28.037
357.00	8.139
358.00	43.705
359.00	86.977
360.00	102.946
361.00	137.267
362.00	99.365
363.00	106.719
364.00	61.272
365.00	50.696
366.00	95.022
367.00	83.332
368.00	57.712
369.00	54.942
370.00	-28.337
371.00	-29.244
372.00	82.960
373.00	116.983
374.00	185.061
375.00	208.938
376.00	62.265
377.00	-1.643
378.00	-35.925
379.00	-15.119
380.00	-15.600
381.00	45.423
382.00	52.768
383.00	58.207
384.00	70.627
385.00	46.038
386.00	38.413
387.00	72.648
388.00	111.621
389.00	251.721
390.00	369.799
391.00	158.529
392.00	102.326
393.00	111.736
394.00	87.051
395.00	82.998
396.00	84.837
397.00	125.740
398.00	98.153
399.00	92.268
400.00	58.281
401.00	83.180
402.00	66.875
403.00	62.392
404.00	78.802
405.00	114.519
406.00	80.748
407.00	76.953
408.00	84.372
409.00	71.509
410.00	83.021
411.00	92.089
412.00	82.233
413.00	80.726
414.00	103.962
415.00	92.205
416.00	92.029
417.00	103.858
418.00	114.224
419.00	108.822
420.00	113.156
421.00	122.176
422.00	125.080
423.00	121.396
424.00	125.227
425.00	128.770
426.00	122.054
427.00	128.238
428.00	120.461
429.00	119.878
430.00	116.196
431.00	120.284
432.00	105.391
433.00	106.733
434.00	104.615
435.00	101.804
436.00	97.679
437.00	105.927
438.00	103.278
439.00	104.427
440.00	101.741
441.00	98.932
442.00	92.802
443.00	92.808
444.00	90.953
445.00	96.631
446.00	99.467
447.00	100.042
448.00	100.628
449.00	103.964
450.00	100.900
451.00	95.290
452.00	96.452
453.00	97.714
454.00	99.340
455.00	98.369
456.00	103.331
457.00	104.687
458.00	101.933
459.00	99.708
460.00	99.988
461.00	102.687
462.00	99.861
463.00	102.959
464.00	103.558
465.00	102.652
466.00	100.185
467.00	100.510
468.00	100.365
469.00	99.104
470.00	99.516
471.00	98.816
472.00	100.194
473.00	99.437
474.00	99.925
475.00	99.584
476.00	100.220
477.00	100.000
478.00	99.125
479.00	99.345
480.00	100.730
481.00	98.965
482.00	98.666
483.00	99.760
484.00	99.813
485.00	98.666
486.00	99.560
487.00	98.527
488.00	98.226
489.00	97.528
490.00	98.184
491.00	98.497
492.00	99.118
493.00	99.110
494.00	99.348
495.00	99.072
496.00	99.079
497.00	98.824
498.00	98.662
499.00	98.529
500.00	98.153
501.00	97.883
502.00	97.935
503.00	98.579
504.00	98.561
505.00	99.313
506.00	99.504
507.00	99.075
508.00	98.399
509.00	98.677
510.00	98.354
511.00	98.020
512.00	98.647
513.00	98.989
514.00	99.001
515.00	98.837
516.00	99.265
517.00	99.428
518.00	99.356
519.00	98.934
520.00	98.950
521.00	98.548
522.00	98.269
523.00	98.360
524.00	98.325
525.00	98.386
526.00	98.776
527.00	98.965
528.00	98.583
529.00	98.876
530.00	99.008
531.00	99.034
532.00	98.990
533.00	99.053
534.00	98.648
535.00	98.631
536.00	98.496
537.00	98.635
538.00	98.801
539.00	99.321
540.00	99.232
541.00	99.220
542.00	98.992
543.00	99.218
544.00	98.917
545.00	98.855
546.00	98.768
547.00	98.863
548.00	98.794
549.00	98.853
550.00	99.080
551.00	99.024
552.00	99.096
553.00	98.969
554.00	99.087
555.00	98.959
556.00	99.023
557.00	98.926
558.00	98.836
559.00	98.765
560.00	98.612
561.00	98.557
562.00	98.478
563.00	98.468
564.00	98.580
565.00	98.621
566.00	98.653
567.00	98.539
568.00	98.273
569.00	98.025
570.00	97.894
571.00	97.690
572.00	97.761
573.00	97.952
574.00	98.067
575.00	98.233
576.00	98.359
577.00	98.491
578.00	98.531
579.00	98.484
580.00	98.423
581.00	98.464
582.00	98.581
583.00	98.770
584.00	98.854
585.00	98.982
586.00	98.955
587.00	98.785
588.00	98.602
589.00	98.607
590.00	98.485
591.00	98.522
592.00	98.565
593.00	98.657
594.00	98.534
595.00	98.447
596.00	98.445
597.00	98.483
598.00	98.484
599.00	98.527
600.00	98.672
601.00	98.739
602.00	98.629
603.00	98.704
604.00	98.734
605.00	98.611
606.00	98.493
607.00	98.423
608.00	98.259
609.00	98.262
610.00	98.423
611.00	98.530
612.00	98.707
613.00	98.772
614.00	98.834
615.00	98.887
616.00	98.864
617.00	98.817
618.00	98.843
619.00	98.749
620.00	98.575
621.00	98.646
622.00	98.579
623.00	98.523
624.00	98.488
625.00	98.641
626.00	98.594
627.00	98.675
628.00	98.714
629.00	98.728
630.00	98.670
631.00	98.654
632.00	98.656
633.00	98.645
634.00	98.711
635.00	98.673
636.00	98.637
637.00	98.560
638.00	98.539
639.00	98.475
640.00	98.507
641.00	98.479
642.00	98.525
643.00	98.442
644.00	98.346
645.00	98.267
646.00	98.329
647.00	98.313
648.00	98.408
649.00	98.527
650.00	98.549
651.00	98.536
652.00	98.422
653.00	98.338
654.00	98.274
655.00	98.212
656.00	98.135
657.00	98.216
658.00	98.237
659.00	98.318
660.00	98.329
661.00	98.358
662.00	98.361
663.00	98.362
664.00	98.298
665.00	98.278
666.00	98.217
667.00	98.183
668.00	98.139
669.00	98.087
670.00	98.193
671.00	98.294
672.00	98.306
673.00	98.311
674.00	98.383
675.00	98.242
676.00	98.166
677.00	98.115
678.00	98.069
679.00	98.005
680.00	98.080
681.00	98.056
682.00	98.042
683.00	98.064
684.00	98.065
685.00	98.073
686.00	98.143
687.00	98.217
688.00	98.179
689.00	98.199
690.00	98.140
691.00	98.090
692.00	97.964
693.00	98.092
694.00	97.969
695.00	97.962
696.00	97.982
697.00	98.066
698.00	97.882
699.00	97.986
700.00	97.868
701.00	97.702
702.00	97.636
703.00	97.684
704.00	97.590
705.00	97.591
706.00	97.697
707.00	97.760
708.00	97.740
709.00	97.702
710.00	97.831
711.00	97.800
712.00	97.755
713.00	97.850
714.00	97.863
715.00	97.701
716.00	97.705
717.00	97.634
718.00	97.449
719.00	97.443
720.00	97.457
721.00	97.340
722.00	97.399
723.00	97.634
724.00	97.701
725.00	97.757
726.00	97.815
727.00	97.726
728.00	97.450
729.00	97.366
730.00	97.250
731.00	97.163
732.00	97.165
733.00	97.258
734.00	97.363
735.00	97.453
736.00	97.469
737.00	97.451
738.00	97.418
739.00	97.287
740.00	97.288
741.00	97.454
742.00	97.421
743.00	97.409
744.00	97.281
745.00	97.248
746.00	97.162
747.00	97.188
748.00	97.223
749.00	97.313
750.00	97.379
751.00	97.307
752.00	97.315
753.00	97.125
754.00	97.180
755.00	97.055
756.00	96.911
757.00	96.769
758.00	96.716
759.00	96.575
760.00	96.494
761.00	96.509
762.00	96.464
763.00	96.538
764.00	96.469
765.00	96.441
766.00	96.297
767.00	96.173
768.00	95.940
769.00	95.995
770.00	95.965
771.00	96.080
772.00	96.210
773.00	96.429
774.00	96.247
775.00	96.214
776.00	96.027
777.00	95.911
778.00	95.623
779.00	95.659
780.00	95.653
781.00	95.884
782.00	95.960
783.00	96.186
784.00	96.202
785.00	96.049
786.00	95.791
787.00	95.589
788.00	95.498
789.00	95.311
790.00	95.309
791.00	95.378
792.00	95.590
793.00	95.471
794.00	95.481
795.00	95.405
796.00	95.193
797.00	95.049
798.00	95.075
799.00	95.016
800.00	95.009
801.00	95.086
802.00	94.997
803.00	94.982
804.00	94.990
805.00	94.913
806.00	94.768
807.00	94.614
808.00	94.495
809.00	94.434
810.00	94.236
811.00	94.154
812.00	94.109
813.00	93.981
814.00	93.745
815.00	93.879
816.00	93.861
817.00	93.774
818.00	93.750
819.00	93.864
820.00	93.557
821.00	93.497
822.00	93.599
823.00	93.500
824.00	93.391
825.00	93.641
826.00	93.560
827.00	93.481
828.00	93.526
829.00	93.726
830.00	93.431
831.00	93.333
832.00	93.099
833.00	93.005
834.00	92.872
835.00	93.139
836.00	93.204
837.00	93.111
838.00	93.071
839.00	92.874
840.00	92.628
841.00	92.428
842.00	92.454
843.00	92.361
844.00	92.395
845.00	92.212
846.00	92.254
847.00	92.226
848.00	92.149
849.00	91.890
850.00	91.678
851.00	91.460
852.00	91.164
853.00	90.948
854.00	91.024
855.00	90.866
856.00	90.782
857.00	90.796
858.00	90.638
859.00	90.281
860.00	90.442
861.00	90.098
862.00	90.266
863.00	90.306
864.00	90.197
865.00	90.036
866.00	90.365
867.00	89.979
868.00	89.957
869.00	90.016
870.00	89.977
871.00	89.706
872.00	89.460
873.00	88.869
874.00	88.646
875.00	88.284
876.00	88.138
877.00	88.130
878.00	88.445
879.00	88.134
880.00	88.084
881.00	87.761
882.00	87.712
883.00	87.213
884.00	87.261
885.00	87.090
886.00	87.250
887.00	86.957
888.00	87.055
889.00	86.793
890.00	86.708
891.00	86.777
892.00	86.738
893.00	86.521
894.00	86.577
895.00	86.720
896.00	86.486
897.00	86.324
898.00	85.988
899.00	85.870
900.00	85.740
901.00	85.384
902.00	85.300
903.00	85.586
904.00	85.509
905.00	85.330
906.00	85.341
907.00	84.842
908.00	84.373
909.00	84.112
910.00	83.930
911.00	83.808
912.00	83.667
913.00	83.828
914.00	84.051
915.00	84.002
916.00	83.852
917.00	84.036
918.00	83.863
919.00	83.719
920.00	83.634
921.00	83.204
922.00	83.000
923.00	82.963
924.00	83.224
925.00	83.063
926.00	83.467
927.00	83.538
928.00	83.202
929.00	82.617
930.00	82.515
931.00	82.083
932.00	81.873
933.00	82.053
934.00	81.620
935.00	81.390
936.00	81.258
937.00	81.814
938.00	81.593
939.00	81.496
940.00	81.051
941.00	81.796
942.00	81.850
943.00	82.051
944.00	82.901
945.00	83.502
946.00	82.734
947.00	82.075
948.00	82.265
949.00	82.004
950.00	81.773
951.00	81.450
952.00	81.710
953.00	81.789
954.00	81.668
955.00	82.371
956.00	83.364
957.00	83.058
958.00	83.543
959.00	82.282
960.00	81.419
961.00	80.419
962.00	80.369
963.00	79.117
964.00	79.713
965.00	80.370
966.00	81.261
967.00	81.721
968.00	82.141
969.00	82.840
970.00	82.525
971.00	82.784
972.00	82.570
973.00	83.302
974.00	82.679
975.00	83.843
976.00	82.730
977.00	83.227
978.00	82.427
979.00	83.076
980.00	82.431
981.00	84.073
982.00	84.985
983.00	85.190
984.00	85.211
985.00	83.992
986.00	84.812
987.00	83.127
988.00	83.437
989.00	83.377
990.00	83.107
991.00	81.411
992.00	82.386
993.00	82.432
994.00	81.122
995.00	82.364
996.00	83.140
997.00	82.102
998.00	79.902
999.00	79.619
1000.00	73.293
>>>>>End Processed Spectral Data<<<<<
