SpectraSuite Data File
++++++++++++++++++++++++++++++++++++
Date: Thu Oct 10 11:17:45 CEST 2019
User: admin
Dark Spectrum Present: Yes
Reference Spectrum Present: Yes
Number of Sampled Component Spectra: 1
Spectrometers: USB2G49547
Integration Time (usec): 100000 (USB2G49547)
Spectra Averaged: 10 (USB2G49547)
Boxcar Smoothing: 2 (USB2G49547)
Correct for Electrical Dark: No (USB2G49547)
Strobe/Lamp Enabled: No (USB2G49547)
Correct for Detector Non-linearity: No (USB2G49547)
Correct for Stray Light: No (USB2G49547)
Number of Pixels in Processed Spectrum: 651
>>>>>Begin Processed Spectral Data<<<<<
350.00	155.317
351.00	249.102
352.00	181.365
353.00	170.696
354.00	151.446
355.00	126.799
356.00	113.240
357.00	112.869
358.00	94.985
359.00	85.596
360.00	95.215
361.00	99.843
362.00	98.556
363.00	103.545
364.00	89.856
365.00	86.870
366.00	87.632
367.00	94.330
368.00	109.805
369.00	126.444
370.00	144.225
371.00	133.740
372.00	141.920
373.00	169.969
374.00	188.902
375.00	142.902
376.00	146.205
377.00	107.078
378.00	109.959
379.00	103.841
380.00	112.629
381.00	129.453
382.00	141.829
383.00	144.209
384.00	135.618
385.00	129.694
386.00	98.723
387.00	88.892
388.00	83.058
389.00	94.884
390.00	108.082
391.00	115.839
392.00	110.628
393.00	110.856
394.00	81.547
395.00	69.865
396.00	58.925
397.00	63.087
398.00	59.678
399.00	78.148
400.00	73.910
401.00	89.055
402.00	108.262
403.00	100.162
404.00	136.582
405.00	144.951
406.00	149.138
407.00	141.639
408.00	175.102
409.00	179.527
410.00	182.150
411.00	262.435
412.00	293.195
413.00	121.025
414.00	65.951
415.00	20.129
416.00	-19.748
417.00	-33.080
418.00	85.565
419.00	39.000
420.00	51.445
421.00	90.085
422.00	95.984
423.00	92.541
424.00	148.706
425.00	140.848
426.00	302.841
427.00	264.103
428.00	362.639
429.00	182.901
430.00	149.550
431.00	119.022
432.00	112.678
433.00	102.228
434.00	100.139
435.00	100.248
436.00	97.685
437.00	95.349
438.00	96.021
439.00	103.462
440.00	107.362
441.00	115.248
442.00	111.647
443.00	109.730
444.00	101.373
445.00	96.144
446.00	91.805
447.00	97.384
448.00	105.686
449.00	109.838
450.00	110.531
451.00	108.343
452.00	104.113
453.00	99.010
454.00	99.378
455.00	99.908
456.00	101.427
457.00	102.313
458.00	101.735
459.00	101.350
460.00	99.264
461.00	100.186
462.00	97.337
463.00	96.814
464.00	96.839
465.00	99.148
466.00	96.339
467.00	97.292
468.00	99.353
469.00	98.785
470.00	97.937
471.00	100.945
472.00	102.784
473.00	99.988
474.00	99.320
475.00	100.548
476.00	99.135
477.00	98.633
478.00	99.555
479.00	99.245
480.00	98.642
481.00	99.124
482.00	99.671
483.00	99.791
484.00	100.583
485.00	101.038
486.00	100.405
487.00	98.988
488.00	98.058
489.00	96.971
490.00	97.301
491.00	97.296
492.00	97.558
493.00	98.355
494.00	98.891
495.00	98.305
496.00	98.159
497.00	98.056
498.00	98.718
499.00	98.780
500.00	98.897
501.00	98.597
502.00	98.690
503.00	97.427
504.00	97.333
505.00	96.947
506.00	97.235
507.00	97.373
508.00	98.182
509.00	98.294
510.00	98.448
511.00	98.288
512.00	97.336
513.00	96.486
514.00	96.432
515.00	96.730
516.00	96.421
517.00	96.982
518.00	97.404
519.00	97.831
520.00	97.578
521.00	98.055
522.00	98.616
523.00	98.748
524.00	98.321
525.00	98.526
526.00	98.406
527.00	98.208
528.00	98.428
529.00	98.606
530.00	98.458
531.00	98.420
532.00	98.137
533.00	97.831
534.00	97.708
535.00	97.500
536.00	97.807
537.00	97.903
538.00	98.130
539.00	98.349
540.00	98.917
541.00	98.846
542.00	99.120
543.00	98.905
544.00	98.516
545.00	98.086
546.00	97.988
547.00	97.806
548.00	98.077
549.00	97.935
550.00	98.073
551.00	97.877
552.00	97.718
553.00	97.413
554.00	97.802
555.00	97.634
556.00	97.536
557.00	97.497
558.00	97.087
559.00	96.885
560.00	96.891
561.00	96.770
562.00	96.559
563.00	96.871
564.00	96.553
565.00	96.346
566.00	96.471
567.00	96.664
568.00	96.380
569.00	96.361
570.00	96.343
571.00	96.142
572.00	95.886
573.00	95.650
574.00	95.490
575.00	95.394
576.00	95.225
577.00	95.065
578.00	94.945
579.00	94.902
580.00	94.655
581.00	94.482
582.00	94.444
583.00	94.381
584.00	94.288
585.00	94.366
586.00	94.397
587.00	94.258
588.00	94.353
589.00	94.332
590.00	94.016
591.00	93.834
592.00	93.572
593.00	93.388
594.00	93.171
595.00	93.034
596.00	92.924
597.00	93.032
598.00	92.964
599.00	93.000
600.00	93.049
601.00	92.879
602.00	92.707
603.00	92.526
604.00	92.376
605.00	92.193
606.00	92.031
607.00	91.869
608.00	91.726
609.00	91.500
610.00	91.400
611.00	91.301
612.00	91.222
613.00	91.146
614.00	91.080
615.00	90.965
616.00	90.842
617.00	90.619
618.00	90.561
619.00	90.494
620.00	90.408
621.00	90.323
622.00	90.377
623.00	90.185
624.00	89.984
625.00	89.739
626.00	89.750
627.00	89.640
628.00	89.618
629.00	89.601
630.00	89.693
631.00	89.573
632.00	89.461
633.00	89.300
634.00	89.123
635.00	88.895
636.00	88.715
637.00	88.581
638.00	88.547
639.00	88.500
640.00	88.469
641.00	88.367
642.00	88.226
643.00	87.988
644.00	87.989
645.00	87.907
646.00	87.836
647.00	87.714
648.00	87.673
649.00	87.412
650.00	87.197
651.00	87.090
652.00	87.022
653.00	86.909
654.00	86.733
655.00	86.759
656.00	86.650
657.00	86.595
658.00	86.551
659.00	86.600
660.00	86.419
661.00	86.421
662.00	86.245
663.00	86.240
664.00	86.155
665.00	86.201
666.00	86.119
667.00	86.126
668.00	85.950
669.00	85.926
670.00	85.801
671.00	85.691
672.00	85.652
673.00	85.684
674.00	85.585
675.00	85.536
676.00	85.584
677.00	85.531
678.00	85.354
679.00	85.383
680.00	85.323
681.00	85.134
682.00	85.065
683.00	85.065
684.00	84.885
685.00	84.709
686.00	84.780
687.00	84.615
688.00	84.658
689.00	84.730
690.00	84.679
691.00	84.524
692.00	84.708
693.00	84.481
694.00	84.432
695.00	84.529
696.00	84.470
697.00	84.308
698.00	84.439
699.00	84.452
700.00	84.506
701.00	84.640
702.00	84.705
703.00	84.741
704.00	84.828
705.00	84.789
706.00	84.870
707.00	84.911
708.00	84.974
709.00	84.811
710.00	84.862
711.00	84.750
712.00	84.664
713.00	84.579
714.00	84.697
715.00	84.698
716.00	84.653
717.00	84.710
718.00	84.683
719.00	84.440
720.00	84.386
721.00	84.269
722.00	84.169
723.00	84.074
724.00	84.063
725.00	83.861
726.00	83.832
727.00	83.819
728.00	83.611
729.00	83.468
730.00	83.371
731.00	83.225
732.00	83.059
733.00	82.981
734.00	83.019
735.00	82.968
736.00	83.010
737.00	82.979
738.00	83.064
739.00	82.958
740.00	83.057
741.00	83.162
742.00	83.196
743.00	83.156
744.00	83.317
745.00	83.333
746.00	83.309
747.00	83.306
748.00	83.442
749.00	83.497
750.00	83.595
751.00	83.604
752.00	83.766
753.00	83.658
754.00	83.567
755.00	83.536
756.00	83.592
757.00	83.588
758.00	83.605
759.00	83.623
760.00	83.630
761.00	83.629
762.00	83.625
763.00	83.543
764.00	83.499
765.00	83.377
766.00	83.151
767.00	83.027
768.00	83.154
769.00	82.978
770.00	82.777
771.00	82.529
772.00	82.037
773.00	81.622
774.00	81.421
775.00	81.185
776.00	81.021
777.00	80.755
778.00	80.422
779.00	80.073
780.00	79.785
781.00	79.242
782.00	78.862
783.00	78.420
784.00	77.867
785.00	77.387
786.00	76.856
787.00	76.259
788.00	75.666
789.00	75.199
790.00	74.240
791.00	73.654
792.00	73.089
793.00	72.535
794.00	71.628
795.00	71.202
796.00	70.572
797.00	69.858
798.00	68.994
799.00	68.330
800.00	67.198
801.00	66.153
802.00	65.213
803.00	64.259
804.00	63.434
805.00	62.703
806.00	61.955
807.00	61.146
808.00	60.295
809.00	59.415
810.00	58.719
811.00	58.072
812.00	57.101
813.00	56.487
814.00	55.660
815.00	54.874
816.00	54.098
817.00	53.683
818.00	52.885
819.00	52.113
820.00	51.418
821.00	50.833
822.00	50.125
823.00	49.841
824.00	49.611
825.00	49.187
826.00	48.976
827.00	48.786
828.00	48.527
829.00	48.334
830.00	48.169
831.00	47.668
832.00	47.708
833.00	47.609
834.00	47.615
835.00	47.735
836.00	47.874
837.00	47.735
838.00	47.782
839.00	47.896
840.00	48.292
841.00	48.901
842.00	49.213
843.00	49.508
844.00	49.650
845.00	49.866
846.00	49.880
847.00	50.166
848.00	50.705
849.00	51.334
850.00	51.689
851.00	52.039
852.00	52.730
853.00	53.061
854.00	53.319
855.00	53.661
856.00	54.207
857.00	54.388
858.00	54.931
859.00	55.735
860.00	56.375
861.00	56.742
862.00	57.348
863.00	57.733
864.00	58.178
865.00	58.561
866.00	59.378
867.00	59.720
868.00	59.991
869.00	60.316
870.00	60.624
871.00	60.921
872.00	61.518
873.00	61.952
874.00	62.317
875.00	62.585
876.00	63.010
877.00	63.316
878.00	63.644
879.00	63.723
880.00	64.290
881.00	64.709
882.00	65.050
883.00	65.606
884.00	66.120
885.00	66.594
886.00	66.693
887.00	67.058
888.00	67.627
889.00	68.181
890.00	68.529
891.00	69.093
892.00	69.323
893.00	69.250
894.00	69.564
895.00	69.934
896.00	70.398
897.00	70.603
898.00	71.136
899.00	71.148
900.00	71.403
901.00	71.854
902.00	72.479
903.00	72.494
904.00	72.830
905.00	73.272
906.00	73.067
907.00	72.759
908.00	73.224
909.00	73.579
910.00	73.471
911.00	73.961
912.00	74.700
913.00	74.841
914.00	74.972
915.00	75.180
916.00	74.916
917.00	75.094
918.00	75.469
919.00	75.527
920.00	75.380
921.00	75.649
922.00	75.807
923.00	75.391
924.00	75.526
925.00	76.492
926.00	76.990
927.00	77.272
928.00	77.641
929.00	78.018
930.00	77.911
931.00	77.774
932.00	77.470
933.00	77.759
934.00	78.052
935.00	77.902
936.00	77.916
937.00	78.117
938.00	78.278
939.00	78.203
940.00	78.253
941.00	78.523
942.00	78.765
943.00	79.147
944.00	79.505
945.00	79.469
946.00	78.922
947.00	79.327
948.00	78.772
949.00	78.457
950.00	78.880
951.00	79.335
952.00	79.718
953.00	80.736
954.00	81.120
955.00	81.115
956.00	81.212
957.00	80.936
958.00	80.032
959.00	80.091
960.00	80.090
961.00	80.352
962.00	79.779
963.00	79.980
964.00	79.459
965.00	79.933
966.00	79.166
967.00	79.420
968.00	78.930
969.00	78.851
970.00	79.327
971.00	80.328
972.00	81.528
973.00	81.909
974.00	82.421
975.00	81.170
976.00	81.846
977.00	80.087
978.00	80.684
979.00	80.854
980.00	81.245
981.00	80.246
982.00	81.917
983.00	82.430
984.00	82.139
985.00	82.759
986.00	84.124
987.00	84.146
988.00	83.780
989.00	83.967
990.00	83.209
991.00	81.741
992.00	79.326
993.00	77.004
994.00	75.617
995.00	77.844
996.00	76.628
997.00	79.593
998.00	80.609
999.00	95.806
1000.00	73.058
>>>>>End Processed Spectral Data<<<<<
